rms_s1_ch1;var_s1_ch1;zcr_s1_ch1;wl_s1_ch1;rotule;rms_s1_ch2;var_s1_ch2;zcr_s1_ch2;wl_s1_ch2;rms_s1_ch3;var_s1_ch3;zcr_s1_ch3;wl_s1_ch3;rms_s1_ch4;var_s1_ch4;zcr_s1_ch4;wl_s1_ch4;rms_s1_ch5;var_s1_ch5;zcr_s1_ch5;wl_s1_ch5;rms_s1_ch6;var_s1_ch6;zcr_s1_ch6;wl_s1_ch6;rms_s1_ch7;var_s1_ch7;zcr_s1_ch7;wl_s1_ch7;rms_s1_ch8;var_s1_ch8;zcr_s1_ch8;wl_s1_ch8;rms_s1_ch9;var_s1_ch9;zcr_s1_ch9;wl_s1_ch9;rms_s1_ch10;var_s1_ch10;zcr_s1_ch10;wl_s1_ch10;rms_s1_ch11;var_s1_ch11;zcr_s1_ch11;wl_s1_ch11;rms_s1_ch12;var_s1_ch12;zcr_s1_ch12;wl_s1_ch12;rms_s1_ch13;var_s1_ch13;zcr_s1_ch13;wl_s1_ch13;rms_s1_ch14;var_s1_ch14;zcr_s1_ch14;wl_s1_ch14;rms_s1_ch15;var_s1_ch15;zcr_s1_ch15;wl_s1_ch15;rms_s1_ch16;var_s1_ch16;zcr_s1_ch16;wl_s1_ch16;rms_s2_ch1;var_s2_ch1;zcr_s2_ch1;wl_s2_ch1;rms_s2_ch2;var_s2_ch2;zcr_s2_ch2;wl_s2_ch2;rms_s2_ch3;var_s2_ch3;zcr_s2_ch3;wl_s2_ch3;rms_s2_ch4;var_s2_ch4;zcr_s2_ch4;wl_s2_ch4;rms_s2_ch5;var_s2_ch5;zcr_s2_ch5;wl_s2_ch5;rms_s2_ch6;var_s2_ch6;zcr_s2_ch6;wl_s2_ch6;rms_s2_ch7;var_s2_ch7;zcr_s2_ch7;wl_s2_ch7;rms_s2_ch8;var_s2_ch8;zcr_s2_ch8;wl_s2_ch8;rms_s2_ch9;var_s2_ch9;zcr_s2_ch9;wl_s2_ch9;rms_s2_ch10;var_s2_ch10;zcr_s2_ch10;wl_s2_ch10;rms_s2_ch11;var_s2_ch11;zcr_s2_ch11;wl_s2_ch11;rms_s2_ch12;var_s2_ch12;zcr_s2_ch12;wl_s2_ch12;rms_s2_ch13;var_s2_ch13;zcr_s2_ch13;wl_s2_ch13;rms_s2_ch14;var_s2_ch14;zcr_s2_ch14;wl_s2_ch14;rms_s2_ch15;var_s2_ch15;zcr_s2_ch15;wl_s2_ch15;rms_s2_ch16;var_s2_ch16;zcr_s2_ch16;wl_s2_ch16
0.10789789403018692;0.011678852298511738;155.0;0.17367619157539838;12.0;0.10711763780181502;0.01151141411607419;156.0;0.16926797469049598;0.10827957403734145;0.011762685840355187;157.0;0.1668422524412595;0.1062663830455706;0.011328979763310015;158.0;0.16426468780366443;0.10295476965766029;0.010633113715585436;161.0;0.16276027868419932;0.10067615338320521;0.0101669929847002;153.0;0.16078909689168297;0.09918463698623668;0.009867730503374464;154.0;0.15918173271025723;0.10471382398883515;0.010999494619957013;157.0;0.17436976040260652;0.0984630761411593;0.009724903540563743;156.0;0.15712559549343116;0.09715976373806844;0.009468910873506778;154.0;0.15745586260958377;0.09827796877944601;0.009688269777284738;152.0;0.15877487853658176;0.09942794194164452;0.009915196922872785;149.0;0.15869259667088995;0.09876453160216621;0.009784984522551547;155.0;0.1594511085207877;0.10326474438098625;0.010697702879762816;151.0;0.16198706959814363;0.106633983714269;0.011407604898480429;150.0;0.16426264109019553;0.10084871161636572;0.010202570002827278;162.0;0.15571770999285675;0.09198573189292832;0.008488946365831897;157.0;0.14289882034884138;0.09983470161974473;0.009998309480609178;161.0;0.1417869451510425;0.10412274541714867;0.010875138890389708;163.0;0.14036156366545854;0.10548941091060603;0.011162605923428095;168.0;0.13901389634855227;0.10272773454546766;0.010586234192409696;170.0;0.13777452591820233;0.10208006754130228;0.010453214820451024;169.0;0.137386119813031;0.10001096321234576;0.010033802155109952;167.0;0.13654283957518107;0.08836931053486208;0.00783484704421022;150.0;0.14482365250455562;0.09646423219032031;0.009334339202936427;171.0;0.1367245524606118;0.09750946044255215;0.00953795696301805;163.0;0.1394501462556326;0.10484018269741326;0.01102593423268959;164.0;0.14828930422244535;0.11657465178948087;0.013630341632637344;159.0;0.15485757086008167;0.10791809377153724;0.011681343279102217;166.0;0.14673255341774452;0.10031139574321017;0.01009376402229012;166.0;0.1426886334616349;0.09864948091822887;0.009762973829278342;164.0;0.1423572968510017;0.09805583676420877;0.00964516856217363;170.0;0.13435574641865758
0.1549896480873934;0.02409597868080193;141.0;0.22208270238708316;12.0;0.14915871177158269;0.022316803496061823;141.0;0.2143786250425211;0.14745817061211197;0.021809759933627965;146.0;0.20963389247924463;0.1432893933280554;0.020595336334774048;149.0;0.20543278615470617;0.13925492450626736;0.019452196194049406;148.0;0.20309106336864002;0.13638311233391032;0.018658647035199722;144.0;0.20041707846578322;0.13487248781988742;0.018246344111991865;144.0;0.1986185562474609;0.1536112894803115;0.023668279605141687;150.0;0.22571417879627467;0.1329941330436458;0.01774140954912334;148.0;0.19554206821856737;0.1323871344869023;0.017581077914073328;148.0;0.19533050101970936;0.13600353339949345;0.018553627627445134;146.0;0.1956317698546669;0.13974225238502844;0.019585479845463077;145.0;0.19750648187891914;0.1418622700155735;0.020184868091087448;149.0;0.20005778328673532;0.15085906666972862;0.022825045788888044;152.0;0.20546407707960132;0.15678073517267624;0.02465190320382512;153.0;0.20937649836221184;0.13366589288783334;0.017922046630811202;146.0;0.19358992526457838;0.1735004686485799;0.030187315567734196;162.0;0.21232142402312057;0.1765157892822739;0.031241187003118218;166.0;0.20771756379346434;0.1784135345519503;0.03191200547992028;166.0;0.20551117350582412;0.17674282758583118;0.03131655034250672;166.0;0.2027167592733394;0.17161941965088273;0.029527590845112466;165.0;0.20017312370910437;0.16673245193026975;0.027866682321096514;164.0;0.19755105047100954;0.16311106017236657;0.02667530502449741;163.0;0.19546074937969643;0.17091484093331524;0.029298580485215872;156.0;0.21591616354311174;0.15632527966703935;0.0245054882899701;165.0;0.1940518336774042;0.1566078226165632;0.024585055953114082;166.0;0.19518755478379923;0.16182738599117386;0.02625403744261956;169.0;0.20007891564237593;0.17356413312027988;0.030204080293469552;156.0;0.20397483269147854;0.16713006060241709;0.02800647403745575;163.0;0.2001947095873644;0.163219329908835;0.026716322335035816;166.0;0.20065681684385625;0.16805646343233915;0.02832356514675534;166.0;0.2040099091886823;0.15977568082985374;0.02559015141062276;159.0;0.19333246726881342
0.14932567348148326;0.02236894397601808;139.0;0.21992196363723995;12.0;0.14198403080654637;0.020223085829766646;136.0;0.21339976179643494;0.13843874951427845;0.01922535762003304;141.0;0.20878939805311247;0.13374530360379747;0.017943336164849225;140.0;0.2045786564966998;0.13022891267722694;0.017012217819542416;141.0;0.20169528785016477;0.12762900366114444;0.016336477788219936;138.0;0.19886656327981647;0.125715370813902;0.015848785794062323;136.0;0.19631102052680444;0.15137048204452963;0.022986095297018085;147.0;0.22441833429545638;0.12185763138121766;0.014891445640092368;140.0;0.19137434978873616;0.12170409236532756;0.01485611407869699;141.0;0.19021224149200114;0.12782640850507634;0.016386031025486945;141.0;0.19125753264070208;0.13145388791458756;0.017325889136675782;143.0;0.19249491528212742;0.1351372543147145;0.0183119515329501;149.0;0.19470976463726583;0.14392655043697392;0.02077385744229425;150.0;0.1998659925569414;0.15002493028251374;0.022576006722510852;150.0;0.20376248919154388;0.11998391551492918;0.01443999073504384;140.0;0.18992480668136597;0.19621518342462801;0.03859691476311797;145.0;0.23229553071338144;0.19057517432496504;0.03641966884582739;150.0;0.2249553807451303;0.18765379972598886;0.03531122067654666;146.0;0.22100417260468389;0.18280996718955814;0.03351457624586491;146.0;0.21746942216817883;0.1758999744975062;0.031029736046544135;146.0;0.2140899654641333;0.16957653341458415;0.028836243112503806;150.0;0.2106659725461534;0.16451583148083754;0.027140852499479534;152.0;0.20764128130168974;0.19746079598448169;0.03909391511677538;140.0;0.2361567424186017;0.15913045157705094;0.025393141142176195;151.0;0.2047639701551287;0.16069287391684933;0.02588926607943882;152.0;0.2056040062463557;0.16601680638132052;0.02762813452762118;154.0;0.20997208685507102;0.1765043018347046;0.03121626131863919;144.0;0.21094543982172248;0.17219961848248466;0.02972042611692946;146.0;0.20827528900159903;0.16857679357097588;0.028489266552015263;148.0;0.21028316802474373;0.1736198930846144;0.030228904277193876;150.0;0.21536039459856704;0.1580958592292508;0.0250674413209667;154.0;0.20399875822714644
0.1315654010179374;0.017358350145826863;157.0;0.20879757391302167;12.0;0.12700866607983038;0.016172182695644063;154.0;0.20295166558998162;0.12464033468613801;0.015577021691288035;155.0;0.19933299147945702;0.1212333025383211;0.014733944510125881;153.0;0.19543899320138722;0.11758894625511412;0.013865371880485707;153.0;0.19203396189283276;0.11468042520248863;0.013185801494978612;151.0;0.18910261640158932;0.11180228761735618;0.012534269217190412;145.0;0.1857318249523845;0.12853260697095215;0.016564917338284805;159.0;0.2123967500521909;0.1062701770021868;0.011324535258408456;148.0;0.17936374488281465;0.10541422940219355;0.011144200385817208;151.0;0.17790777333376429;0.1089635995148421;0.011906133334825318;154.0;0.1785066480546405;0.11331406105930954;0.01287433327441916;154.0;0.18044020227645616;0.11818159514605724;0.014003689057027391;153.0;0.1843033544248025;0.12488190862759652;0.015634381309496133;148.0;0.1884190584765598;0.12819324902564708;0.016478773006236874;151.0;0.19132934190331205;0.10631736704605604;0.01133387880181052;146.0;0.17961084329511678;0.16099319970109144;0.025985589655005456;166.0;0.22835525976182305;0.15385321924847517;0.023715292595203177;162.0;0.22197566840308822;0.15001223052916005;0.02254349115689433;155.0;0.2176288090698309;0.14552411398302223;0.021206830982455314;151.0;0.2143091664694282;0.1386841196684397;0.01926247486020807;154.0;0.21032051514347636;0.13378757674502836;0.017922457563326617;165.0;0.20704525229561452;0.12758645235619914;0.01630534774413721;167.0;0.202893247582652;0.16167529595144392;0.0262070951688978;158.0;0.2301525707678882;0.12315922701765708;0.015192706161952277;169.0;0.19840717694171575;0.12588730854596464;0.015865927240755133;170.0;0.20010906538183762;0.1342210501064313;0.01804332440480439;168.0;0.20692104397690433;0.1430670140201184;0.020510558267199774;153.0;0.20786154155380288;0.13566394844816965;0.01844487089493622;155.0;0.20184056241866374;0.1302610860397509;0.01701040298212041;154.0;0.20121272152417427;0.13198445936198508;0.0174624012864522;157.0;0.2037811834412237;0.11836614338682888;0.014021994653381359;168.0;0.1958044908084929
0.1250559332536192;0.015677389156921892;164.0;0.2002849256393898;12.0;0.12623846178271272;0.01597852310970567;164.0;0.19504242501089444;0.12708027105720163;0.016195641863995105;165.0;0.19187377253716956;0.12435971420473142;0.015511595116037101;163.0;0.18862984218768128;0.11984691119574387;0.014405129422335183;163.0;0.1858043168706011;0.11526616886308232;0.013324415760691799;161.0;0.1827262183857886;0.11208522571898147;0.01259937085789358;157.0;0.17962381480971376;0.11843546357671594;0.014064044682989853;160.0;0.20434767799776482;0.1080257027695485;0.011702294635105097;160.0;0.17473817926070426;0.10783250629512713;0.011660532634278327;162.0;0.17456894405606235;0.10737061594308044;0.011563071215452017;164.0;0.17440249236520622;0.11255359177503732;0.012702811584597283;162.0;0.17707375377132495;0.11843650020422161;0.01406531055398493;162.0;0.18205867240085036;0.12706797228314518;0.01619162483764414;161.0;0.1875251951839601;0.12755728225032165;0.01631526857608752;161.0;0.18902838397222246;0.11030341474273368;0.012202733220116517;156.0;0.17370124478254656;0.15214247224107125;0.023190503899781938;167.0;0.22748554838062188;0.15285361713402648;0.02342219525420301;160.0;0.22314981589798813;0.15421096384976904;0.023845348188698396;156.0;0.2207973260794244;0.151967920775933;0.02315993364342182;151.0;0.21833433736794505;0.1479366612736117;0.021944578622334253;157.0;0.21563470446724567;0.14266426059063728;0.020406502383459018;166.0;0.2124540601956406;0.13774179508971313;0.019021077483820443;167.0;0.20892235471427903;0.1498230966888156;0.022483302772048706;166.0;0.2301570957608481;0.13085163996364474;0.017165443443583922;171.0;0.20471122848947626;0.12992840378755557;0.016921670392865396;170.0;0.2055763065992774;0.1325376756985484;0.017605003086528254;168.0;0.2103513416609304;0.13465710105669157;0.018165088786300982;163.0;0.21117903291032225;0.1272933457913694;0.01623638192236641;163.0;0.2063528749781083;0.12557269958869124;0.015804354645240472;165.0;0.20627431173824548;0.1278720520625491;0.01638648932823048;168.0;0.2087936624227681;0.13154054225801684;0.017352389716800372;160.0;0.20177987887641258
0.12647222172133177;0.01602957657723548;149.0;0.20472296276203847;12.0;0.13024060222070213;0.017000972877439055;147.0;0.2008644843956975;0.13365496670514568;0.017909822631551008;148.0;0.19906136975097144;0.13146645727504577;0.017329338827293553;148.0;0.19647097391034327;0.1269899889758833;0.016169488828152976;150.0;0.19400027958190727;0.1222557710286682;0.014982453856241211;149.0;0.19038596679930767;0.119406267559812;0.01429787718667261;149.0;0.18784793976687258;0.12697921831081135;0.016157011417954018;147.0;0.2102794759021103;0.1134967410888514;0.012916365935493859;151.0;0.18270086615715705;0.11300953343246357;0.0128035198843325;153.0;0.18248433960812624;0.11243990289740512;0.012678338380661933;158.0;0.18260714651960258;0.11340141867321417;0.012886108294311227;153.0;0.1832202736649256;0.11579740950388404;0.013442821495430963;155.0;0.1847513591857717;0.12225395104278207;0.014978029555111499;156.0;0.1903612159312931;0.12448912501964197;0.015528592960453128;155.0;0.1940626937854918;0.11649252982095719;0.013607747287004883;147.0;0.18164815711764848;0.19248408029391884;0.03717106075952428;154.0;0.2290993042332175;0.19418724583930558;0.03783034380754261;152.0;0.22456805423471357;0.19579367983256452;0.038459721604943285;153.0;0.22333854484615778;0.1932639752671611;0.037470594740151277;149.0;0.2218255835600404;0.18841379455009838;0.035614716964615926;155.0;0.21992103344026084;0.18309967460716386;0.03363366535439513;156.0;0.217502781914212;0.1771211846078586;0.03147340138927563;156.0;0.21452848581533282;0.18642444499075259;0.034867003622686896;161.0;0.2352955707654287;0.1700130248055897;0.028997389594039788;157.0;0.21190621794025047;0.1683684843041737;0.028439287022460707;157.0;0.21261364813118105;0.16810330330874734;0.02834948104592857;159.0;0.21518786397415138;0.16115725999873395;0.026055164124302334;156.0;0.21600997664502955;0.15772243772245173;0.0249564079936469;154.0;0.21591558389808146;0.16171857093951436;0.026236694689164564;154.0;0.21929494043782335;0.16875426469150356;0.02856802427886987;153.0;0.22392097828601273;0.17046947161692608;0.029151728107163436;153.0;0.20907299140216395
0.11982947830289525;0.014404071199763117;156.0;0.20452424563661006;12.0;0.12234368850732719;0.015015392181969558;151.0;0.19884316135848648;0.12506231882774044;0.015691001653102884;153.0;0.19681767901921168;0.12304496724607518;0.015189231838490459;156.0;0.1944492952347003;0.1192254961922322;0.014261170706348763;155.0;0.19173832393648585;0.11563562588872198;0.01341523786688388;156.0;0.18874693254537783;0.11326480408803008;0.012870531542165272;156.0;0.1867014761169161;0.12099355385794945;0.014679076280269201;151.0;0.20991168790019013;0.10685400574872286;0.011454963844087502;157.0;0.18152454082228892;0.10629075158897609;0.011334545792119007;159.0;0.1810245799060797;0.1070297522352213;0.011492798002509646;164.0;0.18161059407338306;0.10420983364085208;0.010894605925564833;160.0;0.18039421685592982;0.1020107462386292;0.010440099327296335;161.0;0.17979348099661566;0.1024595396234386;0.010532114462305274;162.0;0.1832841015553571;0.10600392216276888;0.011272753619839456;161.0;0.18938022708373817;0.10848503150244626;0.011807462959011453;154.0;0.18057054352132743;0.20910127953970306;0.04386624227333565;161.0;0.23899188636885152;0.203552202576018;0.041568329377825716;165.0;0.23150029794262916;0.20031174554791073;0.040255900010091175;167.0;0.22769067364255632;0.19537521049102827;0.03829594439315139;166.0;0.22493830335011758;0.18856478356368073;0.03567229435328939;168.0;0.221755910797298;0.18175517971516858;0.0331417110112369;166.0;0.2186996578559131;0.17438160750847925;0.03050730432189895;164.0;0.2147238537107486;0.21260526086363832;0.04534862304468652;169.0;0.24568473640827498;0.1667943130523591;0.027910873616181754;166.0;0.2115067824474943;0.16491207545255446;0.027284868267038815;167.0;0.21100658256776436;0.1641473862840428;0.02703217802297799;166.0;0.21083605121450488;0.15754314124903768;0.024900845368189758;160.0;0.21200592896875833;0.15721820197695457;0.02479834406231748;157.0;0.21294367175375156;0.16369146267491771;0.02688244741996143;159.0;0.21722517098128388;0.17395470919320885;0.030359139400493635;153.0;0.22212395735032595;0.16615284541571843;0.027696660440564406;168.0;0.20924253578288257
0.11324170449709331;0.012860034829315354;175.0;0.20354493682081323;12.0;0.11653589271219321;0.013622154194627336;168.0;0.1962156371220762;0.11923660827418005;0.014261890281721186;168.0;0.19295811428782936;0.11841487000722084;0.014065082101753865;171.0;0.19120364039725649;0.11510697392497343;0.013290832782158679;167.0;0.18857668262444982;0.11218037803914746;0.012624560606690934;171.0;0.18650026159312394;0.11021232682829403;0.012186178613096246;172.0;0.18471622787387731;0.10981975853033168;0.012095816634700898;165.0;0.20641403386196772;0.1057451593307784;0.011218383139655078;174.0;0.1797443783427299;0.10434518719003384;0.010923236214618113;177.0;0.1786412794930995;0.10388700000209207;0.010827704291956399;175.0;0.17969226874054411;0.10066267106438219;0.010166081213352477;171.0;0.17983986251413325;0.09910866238239943;0.009853495543387764;174.0;0.18083688314695848;0.10073045202795322;0.010176698411599643;175.0;0.18359909357878823;0.10262958677261518;0.010562289405930429;173.0;0.18886858648887062;0.10725123673005915;0.011538834603061461;170.0;0.17772877993733457;0.16026753055242784;0.025763862767739613;152.0;0.225908904503296;0.15513499552774848;0.02414130235077805;163.0;0.21903483946105354;0.15361898212462166;0.023668969721735347;162.0;0.21696770176406818;0.15015110346816415;0.02261190801697964;168.0;0.21557742621272255;0.14456035417190022;0.02095969229986706;163.0;0.21288127421670236;0.13797640282748896;0.01909378294001222;162.0;0.2100009111457769;0.1321616796292743;0.017514369840903016;161.0;0.20646152874557222;0.17280475959824143;0.029948837910478927;161.0;0.234417014976437;0.1259960449876877;0.01592072808672501;159.0;0.20269256073783393;0.12427957389620693;0.015488337262242911;160.0;0.2011782393278926;0.12364227716749261;0.015331796126338462;156.0;0.20053096595092484;0.12512931011807646;0.015701222318275553;153.0;0.20126543373622802;0.12385119215518041;0.015382902952876792;154.0;0.20164122746591842;0.12527193383736984;0.015732355135985185;164.0;0.20488470926917132;0.13119871185406284;0.01724983558823043;160.0;0.2084940917114272;0.1265988966067753;0.016073317133269868;160.0;0.201059741595809
0.11584266950894022;0.01345908477758159;164.0;0.2049084351197558;12.0;0.11870386651031971;0.014134220744793037;150.0;0.19743457154032834;0.12041489115711242;0.014546023639472706;152.0;0.19414898083273674;0.11913804762857691;0.01423873137625005;153.0;0.1929143605975813;0.11552601317156704;0.013389551575241012;151.0;0.19083571654537557;0.11217772286190214;0.012624110099234585;155.0;0.18918726159442142;0.10990525782448018;0.01211797937146468;157.0;0.1878277114106417;0.11234292707908632;0.012656594531294547;162.0;0.20944024964275917;0.10429848605057339;0.010912111128397128;159.0;0.18180333235472243;0.10247011411453079;0.01053377379815617;159.0;0.18079526189851353;0.10176548555316488;0.010389173735595805;157.0;0.18077939546035687;0.0986167811808419;0.009756986235847396;154.0;0.18085451424588023;0.09814318466783069;0.00966354134482153;161.0;0.18187886070987028;0.10078374514742336;0.010189824360199802;163.0;0.183414934190563;0.10325418463569051;0.010694261390520515;166.0;0.18729891798340212;0.10739930366133242;0.01157100664986331;156.0;0.17997404765454722;0.11453179636576033;0.01315568857483949;158.0;0.20593153647062004;0.12021378367370208;0.014496742964325295;161.0;0.19978420543780695;0.12693814196500766;0.01616293010297759;157.0;0.20027810455042822;0.1275901732849268;0.01632988473502544;161.0;0.19992319061006308;0.12334724156302458;0.015262267067926055;158.0;0.19747398451817266;0.11894433078662336;0.014192304902244487;155.0;0.19515192658707556;0.11486671877448669;0.013234533004872666;153.0;0.19253106520126062;0.11545579258059832;0.013367887940974491;157.0;0.21494116742221214;0.1085952999132583;0.011830165936026886;149.0;0.1887353822310128;0.10587934493985254;0.011245737083475253;151.0;0.18768186052548316;0.10360602792174972;0.010767209218087562;149.0;0.18811659380268392;0.1082869747285606;0.0117622115758599;150.0;0.1905131557177069;0.10735014789442374;0.01156089097163146;147.0;0.19238423531832666;0.10567085765450093;0.01119923316727848;159.0;0.19448094344982744;0.10808954659222837;0.011716712657597052;156.0;0.19844119716422332;0.11062411216672881;0.012275873356254512;152.0;0.18643108579740283
0.08748646880519748;0.007677553421690677;155.0;0.15127768483378756;12.0;0.0887839274453109;0.007907034486807187;141.0;0.14564985822825738;0.08858014147433103;0.007870844256717269;139.0;0.14355158502616955;0.08624550744204586;0.007461203575139523;139.0;0.1429771603274283;0.08255753109127006;0.006837113360840255;136.0;0.14203033793312297;0.07916499303584892;0.006287183969234912;134.0;0.14085852400119006;0.0768902650618166;0.005931064055012073;144.0;0.14059405927361626;0.08363283553754743;0.007016335820303791;161.0;0.15560733018490971;0.0722754139655029;0.005240653860378161;136.0;0.13590478524465902;0.07139186706171405;0.005113342760996486;135.0;0.1363893488546107;0.07237650069802766;0.005255442507411162;147.0;0.13702735674167593;0.06891054439363818;0.004764078154173112;145.0;0.1353185983581244;0.0686015562812191;0.0047212094372264595;148.0;0.1345987054480042;0.06981821508347075;0.0048892008622837034;150.0;0.13470240360250993;0.07238870767601943;0.005255703366629283;154.0;0.13664809866091865;0.07558018946874819;0.005730506328310423;134.0;0.13410964566694472;0.10037719973232626;0.010108517824466865;169.0;0.17201233956287987;0.10586807699586051;0.011244704859623486;168.0;0.16794791392092312;0.11112142278632473;0.012387796510439605;167.0;0.16830431522753023;0.11052970034667536;0.012256742492720591;169.0;0.16651335192956335;0.10567763989148886;0.011203519682504508;170.0;0.16450851157320762;0.10146988470907974;0.010329350205551388;169.0;0.16298305398648247;0.09779434489050086;0.009594209141404521;166.0;0.16023117957663993;0.09729934521573977;0.009497805936479933;162.0;0.1745012920896659;0.09168293478575973;0.008432773237749403;160.0;0.1565784372598264;0.08943249926080166;0.008023708916599027;163.0;0.1562975501156755;0.08793770695046663;0.007757703645911978;164.0;0.15842876813483842;0.09311899785805622;0.008698684302337169;167.0;0.1621261818150481;0.09189665220195142;0.008471999515492514;153.0;0.16142496654522837;0.08995296606315892;0.008117442346973836;165.0;0.1608666998427416;0.09043368915670102;0.008204923241440459;163.0;0.16264730652708745;0.09362121440641594;0.008792119660287348;169.0;0.15469313237645851
0.03241234811569233;0.0010409792578552463;143.0;0.06922945431083385;12.0;0.027504149490357222;0.0007499844976071798;142.0;0.06796053725098493;0.02453861802114627;0.0005987732853343253;139.0;0.0667070993339681;0.023003600260884115;0.0005268240158875432;139.0;0.0668226990354626;0.02153718315627362;0.000463056518033607;137.0;0.06802968792015056;0.022215698364395246;0.0004936671548298825;141.0;0.06949866082678033;0.023024781438473554;0.0005305803483652355;153.0;0.07085509926401885;0.0288855608591379;0.0008272454165066064;146.0;0.06730547258175411;0.023222674180518568;0.0005370641158747654;134.0;0.06780226835143785;0.024596171884277648;0.0006037897192567645;138.0;0.07135677881702854;0.030985461920520485;0.0009604919697818381;142.0;0.0787438196285702;0.02790402141521789;0.0007776563349247117;143.0;0.0758811589996014;0.023115254350899936;0.0005330903383943493;135.0;0.06949123255868891;0.023018371531225205;0.0005282990183195578;138.0;0.06721462776229478;0.024487161566670884;0.0005985010346163073;139.0;0.06683053667883043;0.021839726698522653;0.00047614532227982655;129.0;0.06269875658263536;0.12241735679173876;0.015035474436286392;164.0;0.1703580250941376;0.11804568477016787;0.013980866451168802;162.0;0.16709355641835283;0.11784373381724442;0.013932917223936518;162.0;0.16724604087066222;0.11553916738840617;0.013393343148809418;162.0;0.16612512282949715;0.11238238982387207;0.01267102322105052;161.0;0.16535277643970056;0.110401591215704;0.012227934297154668;167.0;0.16476345086827973;0.10796848746926414;0.011694145398518516;167.0;0.16187195964701903;0.11731157276641567;0.013806962667848362;163.0;0.17116985417110156;0.10653120873529719;0.011383994642172882;159.0;0.16002808896330042;0.10810204190565618;0.011722140470180486;160.0;0.1613423068127122;0.11008297573665003;0.012157665336300876;160.0;0.16545828031734466;0.1097198585380133;0.012077035207348022;156.0;0.16618661487257774;0.1078035492118045;0.011657477359259389;150.0;0.16264277748443517;0.10691222477772756;0.011465585173962376;157.0;0.16181561139926526;0.10508744305725981;0.011078634039985845;160.0;0.16260333704639668;0.105101880947554;0.01108067853008892;170.0;0.15734393157376142
0.02305404043646188;0.0005324129439306115;141.0;0.07590576742122604;12.0;0.02676823808995304;0.0007185561742422517;140.0;0.07793903402593708;0.02934746160871079;0.0008639613915106661;138.0;0.07615254696955401;0.03028864563114723;0.0009205238976919795;134.0;0.07697030775570018;0.03034318674622238;0.0009240270191153111;145.0;0.07720444745741414;0.03161452368296379;0.0010031440082198266;147.0;0.07905950342555261;0.03212159987339486;0.0010356135089059644;154.0;0.07932380212812296;0.018369587941767997;0.00033772460234958635;140.0;0.07465590801444863;0.03149263987895209;0.0009954597113458743;136.0;0.0788417534811507;0.032554799489533374;0.0010636211091642784;140.0;0.08264306200340185;0.03720678873885525;0.001388992508246515;136.0;0.08998242891121926;0.034689932348410335;0.0012075508438511514;149.0;0.08599379341661344;0.029343619353369932;0.0008642774305929049;140.0;0.07724742226055566;0.027760885556213213;0.0007735786543039772;146.0;0.07503415535200439;0.027295500307541277;0.0007476200861768222;147.0;0.07463715208662765;0.03151124226152939;0.0009966830241356544;140.0;0.07543317101307716;0.1598892576787375;0.025621217225215594;166.0;0.20345973348743682;0.1503830414079826;0.022671862559460108;165.0;0.19468808871800336;0.14863013954335377;0.02214973344406995;162.0;0.19182391907782895;0.14664118265226864;0.02155970301493885;162.0;0.1907532118422121;0.14493644238427594;0.021069417719039713;158.0;0.1897494528973911;0.14404973565835513;0.020811536863874533;158.0;0.18919289910947967;0.14215309537286405;0.02026826827714596;163.0;0.18759285889765132;0.15241182280056886;0.023285827589379;165.0;0.20839990467025557;0.14355361744712974;0.020668962467522756;159.0;0.1880867359151891;0.14468661431753843;0.02099530694768715;158.0;0.18913453986979567;0.14769378300475494;0.02187804318394303;156.0;0.1927890038190166;0.14937637513732838;0.022377405243987486;152.0;0.19366650645373484;0.15235977923347935;0.023278050611543283;154.0;0.192371916081621;0.1580346403859954;0.025043959354755705;154.0;0.19428465597922615;0.16663009280020583;0.027841953270191046;154.0;0.19970638317198572;0.13912794431611836;0.019413876517394034;167.0;0.1841642802060043
0.10623455669777634;0.011322879306735624;145.0;0.15873177887262968;12.0;0.11396581173482441;0.013030787193194232;143.0;0.15914204734154838;0.11896700833411547;0.014199410499551495;137.0;0.15849808303275914;0.11890744731584606;0.014184949726444145;134.0;0.158264760915472;0.11522142652182309;0.013318750178153795;144.0;0.15553798677577618;0.11260063108148749;0.01271989960191653;141.0;0.1545033897332438;0.1111006888475625;0.012383482587141956;145.0;0.15318915881946601;0.10361113316980808;0.010770715549023566;155.0;0.16179637787130302;0.10596288476759616;0.011264065374495825;134.0;0.14871630340386222;0.10376626517816451;0.010802425798038204;133.0;0.14909280818655196;0.10232518032878493;0.010504276559635676;133.0;0.15065430459135223;0.1025275910608936;0.010545680281445396;146.0;0.14994381000705567;0.10205137582841223;0.010448479145681042;145.0;0.14755688297320116;0.10614042052207655;0.011300863018666696;147.0;0.15083326767206073;0.10961029350980232;0.012048882616652743;152.0;0.15418472671106873;0.11195225056713815;0.01257422695750249;143.0;0.1500319206041794;0.175281447098912;0.030814624097333758;166.0;0.21922728829911947;0.1641710097820329;0.02703611012096851;166.0;0.21221181064444058;0.16032443537173444;0.025784841124358224;164.0;0.20885033315410773;0.15697594198879902;0.024720442254375485;166.0;0.20734908027299376;0.15417317540486625;0.023844196738245456;161.0;0.2056915837144787;0.15108392255180095;0.022899460893036534;157.0;0.2042339076815103;0.14751086118907977;0.02183008459557306;162.0;0.20259045898160194;0.17295837228317176;0.03000803059350404;166.0;0.22312616529110463;0.14811312419469083;0.022007719033147938;165.0;0.20133900467749308;0.14833448432188162;0.022073839050267635;162.0;0.20146800448057048;0.1527831858245246;0.023418887903779047;161.0;0.2030234380590786;0.16349829740329996;0.026818990995117444;163.0;0.20559385415745482;0.16863498517393205;0.028526273019887714;158.0;0.20651158092013522;0.17447376786887014;0.030533994645702264;156.0;0.2094898293837422;0.18991988767815698;0.036176890085271335;152.0;0.21699661685170227;0.142332534384625;0.02032367704767986;166.0;0.19760263972058834
0.13334876010082436;0.017840112220887865;154.0;0.2021249321090628;12.0;0.1420138966577193;0.020233531760885107;148.0;0.2009978152218079;0.14847260932771592;0.022115188730814708;142.0;0.20102733491724722;0.14751743273846363;0.021832211220745613;143.0;0.1996964956303068;0.14248275088829035;0.020367065580418287;148.0;0.19676850992150804;0.13860255242799557;0.019270488925586225;149.0;0.19457224172953877;0.13629699163012213;0.018636500054445997;147.0;0.1929392233971418;0.13099795183899007;0.017216460692232434;165.0;0.20704866283630263;0.1299662672343855;0.0169430643223667;144.0;0.18832269808103086;0.127451878185734;0.016291275211624896;144.0;0.1875935506054678;0.12610677243381913;0.01594695942522315;141.0;0.18696979842860167;0.1274458071243668;0.016283591678454987;144.0;0.18857998647709528;0.12905443249703935;0.01670238920556778;149.0;0.19093326079229667;0.13782827243603735;0.019044295700960185;148.0;0.19658616306521695;0.14362719252837614;0.020685460676095575;152.0;0.2019194370516518;0.13569320523497796;0.018471439110117432;146.0;0.18959758762810033;0.1684246565570979;0.028365501998832872;153.0;0.23205194686879924;0.15968166091444375;0.02551781300191743;157.0;0.2280351714237293;0.15772025627778044;0.024900380135758633;156.0;0.22622560142424591;0.15541455488173683;0.024172125389911415;155.0;0.22520074187131128;0.15224414379553483;0.023207812327657052;152.0;0.2237688160252419;0.14836566708583976;0.02204659110680994;148.0;0.22223997260474604;0.1436173443072734;0.02065714704389217;148.0;0.21963202362780787;0.1753536945806335;0.030769207904020903;156.0;0.2377625146132726;0.13925049180193833;0.019416513308794747;153.0;0.2162687024975138;0.13833020406993995;0.01915533242084454;150.0;0.21563132365292254;0.13993102440304026;0.019606777686872003;149.0;0.21563219712395182;0.1504060268885031;0.022645521483588286;150.0;0.21631249901277622;0.1564165709344888;0.02446901942629787;143.0;0.21862743244575672;0.16041685560077037;0.025739174580295766;145.0;0.22122693806497823;0.17452811800029153;0.030461786085751855;146.0;0.2268829473639654;0.13490493051431204;0.01822419473745621;153.0;0.2131287614319666
0.11316103480262062;0.012832234138994116;160.0;0.2004684686469958;12.0;0.11317756045564796;0.012836600814866804;153.0;0.19389211794903097;0.1159016626228502;0.013464656257395092;149.0;0.1915449278693986;0.11351683653365567;0.012918470938574917;152.0;0.18880492867816262;0.1098998553302329;0.012105919101547333;155.0;0.18719204809373502;0.10655096016071637;0.011375993480832708;152.0;0.18494597753503528;0.10440440756936513;0.010927432963929094;153.0;0.18300598385686198;0.11799032635355404;0.013954508123147824;163.0;0.20607724449700657;0.10042022774921387;0.010105762798507131;153.0;0.18181884358303665;0.09958057962352918;0.009939410763023952;157.0;0.18131514280555147;0.10013308474226734;0.010051970367442618;156.0;0.1802072172124953;0.10145748745474485;0.010316392424641429;154.0;0.18034639575064132;0.1044980693051324;0.010951982519611865;155.0;0.18323782510459904;0.11323807895841866;0.012863862757535973;156.0;0.18841926543840878;0.11920013110408911;0.014255106540309185;155.0;0.1943256285352953;0.1016988427558392;0.010368663619601618;150.0;0.1802757670035408;0.16414314942932448;0.027010594341960716;157.0;0.24719714089742384;0.15738503060486986;0.024820828009436878;168.0;0.237985103277609;0.15745145338162778;0.024831874942676718;166.0;0.23419552738186297;0.15673916551410808;0.024601364983488815;162.0;0.23177112914084771;0.15295579652152821;0.023432258486143828;163.0;0.2291866640468427;0.1492303635329866;0.02230686560545046;155.0;0.22729295470287567;0.14417901579150927;0.020819899593446444;157.0;0.22449896199861327;0.16751004182710275;0.028129813166547942;155.0;0.25299780454258847;0.13728880663212545;0.018873107589907293;157.0;0.22169097643837568;0.13610046279691207;0.018544104193789216;157.0;0.2218945764779417;0.13658521437659676;0.018678456272351252;154.0;0.22330959750064577;0.13912812552166903;0.01938299212139399;155.0;0.2248132779233952;0.14092715418845958;0.019899249678329615;152.0;0.2265682041104498;0.14747565633609333;0.021803781456878692;155.0;0.23004998633350082;0.15966032113565679;0.025563651890896346;154.0;0.23515079847862366;0.1379202331391201;0.019040213040062565;159.0;0.2189507709140793
0.12191916664544347;0.014904748161692294;161.0;0.20934664282362525;12.0;0.112758209668588;0.01274742664410124;164.0;0.1998338641973848;0.10854578472740342;0.011808776094181885;164.0;0.19465965024921983;0.10342348850280562;0.01071900061325044;170.0;0.19026890088595874;0.09939353952637836;0.009902311544865493;167.0;0.18754374338780824;0.09470983848893329;0.008989121346614426;163.0;0.18409317548122828;0.09192687565382406;0.008465738706422707;163.0;0.18093523123626531;0.13499339398833654;0.01827207185841244;162.0;0.21532196513325708;0.08936335655988863;0.007998328363479154;164.0;0.1774422492479822;0.0896260682519556;0.008044852087878635;166.0;0.17645772947727953;0.09176633725639452;0.008429326267966568;165.0;0.17649844459327818;0.09401168434289553;0.008848627594095874;165.0;0.17635208068227254;0.09489301406272055;0.009011690592051874;162.0;0.1786268782151247;0.09998454095259518;0.009999851657105277;161.0;0.18425327496083224;0.10754751518111101;0.011575073612487895;161.0;0.1914965795543775;0.08913742571786633;0.007959454494311673;163.0;0.17548853777569218;0.17953528898570195;0.03233851698134593;152.0;0.24920388991669182;0.17723754648921514;0.03151495850776348;160.0;0.23922411959937548;0.17904228113616522;0.032158052621863116;160.0;0.23458220176701486;0.17805887867174244;0.031808732714392926;159.0;0.23097204580473735;0.1735195433754397;0.03020723311838281;159.0;0.22702996651260834;0.1679463523609964;0.028297370736990377;154.0;0.22322281404960118;0.16135483932078196;0.02612055503674258;156.0;0.21923100800444242;0.17170191476259047;0.029577937802732983;155.0;0.249603319667519;0.15225086096507032;0.023255975545739965;152.0;0.21651229496872856;0.14865628259541327;0.022171010647444964;154.0;0.2162260638816493;0.14765002692078566;0.021871870055293435;155.0;0.21736127859564724;0.14648210264265277;0.021525324774543657;160.0;0.22104184310503638;0.14334339468999646;0.0206105138195377;164.0;0.22133849601902655;0.14717622649148832;0.021725286871148684;163.0;0.22432881672743202;0.15330612032955968;0.02356800106645139;154.0;0.22860235291137626;0.1562593064521186;0.024496049517297572;154.0;0.2152285150895846
0.11653324976587912;0.01362443558933217;144.0;0.20845692847900915;12.0;0.11223282331783835;0.012637398266634724;146.0;0.20063240587335135;0.11102825241195882;0.012367671106003262;148.0;0.1963996065288046;0.10744473736193377;0.011582263382152904;152.0;0.1921366672937225;0.10343857834700258;0.010734192014409684;149.0;0.188584848347643;0.09921977355405201;0.009876622716939554;150.0;0.18462326905853615;0.09718039048559328;0.009475130376968833;148.0;0.1817108963149239;0.12587772877158473;0.015895815519132498;150.0;0.21370285708042885;0.09380245925291927;0.008827856402292951;152.0;0.1772804331096207;0.09343089443077551;0.008758105403635199;149.0;0.1766535094422954;0.09521697013207234;0.009096143385374475;149.0;0.1772111610384778;0.09590458961757516;0.009228018642564178;150.0;0.1778442627763393;0.09734526724418632;0.009507373292817546;150.0;0.18172046743870704;0.10447290680947781;0.010950157933022519;152.0;0.1898395474437414;0.1120544373697638;0.012596755278622461;154.0;0.19697071257640114;0.09544206476058394;0.00913904464680561;151.0;0.1767293111915669;0.18140480916043558;0.0329786544546603;139.0;0.24077245779295328;0.1901265227305022;0.0362281499125491;145.0;0.23326061220576322;0.19896543839264463;0.03967291777557294;145.0;0.23076666824408884;0.20044400486522637;0.04024668922462339;145.0;0.22842113580130322;0.19545914900011882;0.038288423899426126;144.0;0.22537402551626076;0.18938662546463159;0.035949779034365255;145.0;0.22181966886996954;0.18348060186246143;0.033729849940691795;145.0;0.21806694736660465;0.17198904542864363;0.02965380851377097;144.0;0.2371011555091693;0.17079685285863933;0.02923725164773433;139.0;0.2134731225380815;0.16418373755801488;0.027015534140122036;140.0;0.2117176158980898;0.15910585996910873;0.025378166046070835;139.0;0.2109030554241685;0.1535360756484954;0.023636436935885068;135.0;0.21077070547998183;0.14841173858108855;0.022086190191648047;144.0;0.20937593045198336;0.14897783956023572;0.022255492574976162;147.0;0.21233750311249838;0.15020709995044565;0.022623749241691363;144.0;0.2156519670150591;0.17563021722973823;0.030909323454810848;143.0;0.21250680474786338
0.1210791037303364;0.014693587197746428;145.0;0.21273735134463045;12.0;0.12214264294717672;0.014947768970618093;142.0;0.20504208142040053;0.12486681049430948;0.015623962552154194;144.0;0.2008961138682793;0.12351032559994611;0.015284170369896042;147.0;0.19630789272435759;0.11910056088538963;0.014208252566577984;146.0;0.1925221220246174;0.11495918514122229;0.013238076418876116;147.0;0.18854523954468674;0.11262289944056754;0.012709090837618309;147.0;0.186326202850871;0.12331896386325113;0.015253735337358097;145.0;0.21628605838718554;0.10648872971709067;0.011358980319681373;152.0;0.18140440955780457;0.10513149798241007;0.01107465244716805;149.0;0.1813317785859997;0.10511143930313667;0.011068518897686175;146.0;0.18096731056818172;0.10576386964756584;0.011207422855534218;143.0;0.18331134650728628;0.10922810448311872;0.01194959172036913;143.0;0.18864744969820568;0.11628333147769815;0.01354319885626269;147.0;0.19631493337206268;0.12094085862765659;0.014652256678303475;151.0;0.20205183861957937;0.10929606146980719;0.011966867003099076;148.0;0.18158460950437352;0.16822679896721024;0.02836208477121143;149.0;0.2407949764669002;0.17676723030062907;0.0313104120520776;151.0;0.23003220815728884;0.1885248394765138;0.035622143743888904;148.0;0.22690431557527954;0.18959947883944397;0.03602299151879925;145.0;0.22334865011176275;0.18126437927679998;0.03293158456414739;147.0;0.2197048509365078;0.17405661577808357;0.0303714657197639;146.0;0.21643085104201515;0.16775226357505313;0.028199588153366484;146.0;0.2131499466451443;0.1613361514264657;0.02609227040843026;144.0;0.24195082307763333;0.15703334609085473;0.024705601996183543;145.0;0.20920717765469346;0.15213105800489318;0.02319286980098797;145.0;0.20826762541083324;0.14851049797984017;0.022102770406861965;141.0;0.20855616438548769;0.14257808766492047;0.020381726769055423;134.0;0.20710187727477744;0.13666833104264922;0.018729438488527157;139.0;0.20635021217214475;0.13827702386243013;0.01916936130548111;146.0;0.21006034884140612;0.14439456416521917;0.020901880680065023;147.0;0.21471903058420314;0.16115258185321685;0.026013721901520227;147.0;0.2063115196574367
0.1415061888443381;0.020085513752388442;165.0;0.21839951825928988;12.0;0.1457795461866267;0.021318710822451632;162.0;0.21043263875611593;0.15092561133027;0.022850988483351438;162.0;0.20651740970145144;0.14904639689868557;0.022284963487498477;162.0;0.20220680372827904;0.14307084385603297;0.020533878369074623;159.0;0.1981357759924231;0.13700857819174514;0.018831229135638124;159.0;0.19391564508638706;0.13299691035470118;0.017744625295561027;160.0;0.19122418228539;0.13446051450989585;0.018130027062456974;161.0;0.21938863179819806;0.12475397961450159;0.015612771341636189;163.0;0.18562134402491715;0.12180966686978786;0.014884633393156647;164.0;0.18531603026901083;0.11915504243351653;0.014244095597553987;163.0;0.18455678783500198;0.11954519562537275;0.014337801133780305;160.0;0.18635608690798838;0.1192035606014554;0.014255733021652478;159.0;0.1879683123636549;0.12228254796501606;0.015000073158336097;160.0;0.19109397992672575;0.12466068314919991;0.01558641051439473;170.0;0.1948262618152109;0.12877616456969887;0.01663621423350032;161.0;0.18668312897969178;0.16225045426812937;0.026393757667131687;164.0;0.24072573898162616;0.16401109900484326;0.026967585990295903;165.0;0.2317672223826029;0.1725836967984157;0.029865657368816127;166.0;0.22772982909500672;0.170394181116302;0.029113029211648073;163.0;0.22188492148249192;0.15974616389141338;0.025584780722459958;163.0;0.2159195091820949;0.15132175056691885;0.02296221271051483;158.0;0.21120513827517282;0.1433630044751904;0.020604097509077334;158.0;0.20679547031968765;0.15644395215840098;0.0245357205636052;153.0;0.24185473554400483;0.13416569248800497;0.01804318134003388;161.0;0.2035660528679469;0.13246108854902072;0.017587256163618097;162.0;0.20357471127387605;0.1309075765960237;0.017178784464413562;158.0;0.20424692695362004;0.12763096140659955;0.016335271486561595;156.0;0.20510225763961926;0.12444703659632497;0.015533226684894007;156.0;0.20730967665148245;0.12566045097027942;0.015830662577100422;162.0;0.20905782793212466;0.1314899196252543;0.01732841081857434;162.0;0.21213289859060688;0.13645551644627477;0.018663532139499842;160.0;0.20042365958905586
0.1089459168419198;0.011907208966817984;159.0;0.16755990106067142;12.0;0.11799953423152451;0.013969479252503457;157.0;0.1642100277152149;0.12560371366370582;0.01582774567341069;156.0;0.16361306764487143;0.12485896385570172;0.015640811785021;156.0;0.162165145277518;0.12021477836636407;0.014498777225610276;152.0;0.1596940624421382;0.1152940877122264;0.01333602890222845;150.0;0.1570992497435529;0.11233883573594912;0.012661070620358978;146.0;0.15552072262004796;0.09468869699251366;0.008994505795314776;164.0;0.1658806446130555;0.10586430566908746;0.011243983805983742;151.0;0.15232663830931806;0.10319324000838388;0.010683732625808434;156.0;0.15246056922184464;0.100499654787648;0.010133202492768148;161.0;0.15346830440163145;0.09818371491216611;0.00967143251010111;159.0;0.15251650862287525;0.09453107763481812;0.008965348542574983;156.0;0.14882467007928346;0.09405397686607174;0.008874719487232396;159.0;0.14785897017190572;0.09419729206795065;0.00890113082854751;165.0;0.14826551695604406;0.10982573013503769;0.012100985671594393;146.0;0.15327723052574546;0.13094371175928232;0.017194021674466542;151.0;0.18997097272708346;0.13145695905171864;0.01732777257918988;149.0;0.18586832730329392;0.13561515588737744;0.018437583985648417;147.0;0.18324340393019284;0.13302776942082717;0.017737019379200348;151.0;0.17893109123279038;0.12534623157709937;0.015747453838354675;152.0;0.1736301303076359;0.11935230771352022;0.014274964388804125;150.0;0.16982958546117052;0.11349078189607507;0.012907424636626273;147.0;0.1660764754096376;0.12653601529725783;0.016060483725763932;152.0;0.18721178389666474;0.10398316025049177;0.010830681115598983;153.0;0.16138808365817556;0.1026842208254113;0.010565331397890409;154.0;0.16171563564684546;0.1007748925995974;0.010177298498062285;156.0;0.16224924400749194;0.09985076623081238;0.009988866357720928;160.0;0.1645817534961976;0.09882029395792465;0.009784866795419896;160.0;0.1671696734139818;0.09864290065998871;0.009751253097567995;160.0;0.16742260249826232;0.0990610988690168;0.009833361839868661;156.0;0.16720135758171004;0.1054727350531376;0.011141528281453763;152.0;0.15979557903733738
0.05689909442557787;0.0032381829591823274;167.0;0.11045309721204542;12.0;0.06624060846318686;0.004388291521831494;166.0;0.11249547580477852;0.07190080758122028;0.005173159278333708;159.0;0.11361205265297186;0.07318602212918478;0.0053604417629278854;163.0;0.11402294119803312;0.07159651407767775;0.005129587398635516;160.0;0.11268413636283546;0.06960029314844354;0.004852286539769153;156.0;0.11179525230746216;0.0686239156981387;0.0047152378317462575;154.0;0.11148361736856406;0.04725079189434199;0.0022301125309922482;169.0;0.11012141264310148;0.06593498923603083;0.004348389252757275;159.0;0.11094118122158263;0.06532660167101398;0.004269313053355344;166.0;0.11278370929954734;0.06577457111316634;0.004328263495189554;173.0;0.11694132019184857;0.06302144178750065;0.003970255766477351;165.0;0.11601510375915862;0.06103312464500236;0.0037240480912980388;165.0;0.11219202837871724;0.060220145325687854;0.0036297701465775227;168.0;0.11167674018560675;0.05985298751328899;0.0035864815575432285;169.0;0.1118165497019055;0.06787088959132355;0.004609195399284453;152.0;0.1101651752108628;0.07082632846530115;0.005010170779349001;144.0;0.1423720868564892;0.0688221664433202;0.004737280797939254;141.0;0.135822020377343;0.0715288950560136;0.005116340797437907;135.0;0.134281241361774;0.07266779802781537;0.005283465864604205;140.0;0.1344676307468562;0.0712778346267707;0.0050853703453893504;144.0;0.13297580864093986;0.06947738504817919;0.004829851482645714;142.0;0.13267014371505806;0.06802429961625035;0.004628858101853945;140.0;0.1321265377028364;0.06650224073346266;0.004422415910485553;153.0;0.14309479096402652;0.06349339781134843;0.004035464298986577;144.0;0.12821043862028622;0.061626543798370084;0.0038010149953960157;148.0;0.12773742724064827;0.060129439264797975;0.0036217798951702785;151.0;0.12929749455305944;0.061160409387760545;0.0037426767220270483;158.0;0.13209990664291166;0.06225329865446833;0.003878421966904675;158.0;0.13285110775655706;0.06379996183326243;0.004071828477185794;153.0;0.13485554385735804;0.06632405650702057;0.004396082171929626;147.0;0.13678997060004688;0.06521222844522662;0.004259579700970092;145.0;0.12774440513544327
0.07774226471351058;0.006063384488303986;158.0;0.1485459026734872;12.0;0.07856417006382446;0.006192313501971092;167.0;0.1429402883923291;0.08002170260434563;0.006423904119762023;161.0;0.13966930787447002;0.08079973924084934;0.006549925184071143;162.0;0.13808336195594897;0.0789418367325932;0.00625200174334754;157.0;0.13609388991805685;0.07729804062612636;0.005994443132737015;157.0;0.13477227582434656;0.07592669294050193;0.005782827404670198;157.0;0.13321567604586868;0.07333612209818183;0.005395656867729507;152.0;0.1497856291844195;0.07295010208775596;0.005338475022769658;152.0;0.12999172705446413;0.07201684294288015;0.0052032849271753156;161.0;0.13144596245560428;0.07200588379882246;0.005201376941686341;169.0;0.13445574803081362;0.07148049036594223;0.005125516239146918;161.0;0.13360978411239918;0.07024645905495018;0.004950314522697783;160.0;0.13215290373831856;0.0699626827927681;0.004909135380371106;164.0;0.13369327790227442;0.06586917665831045;0.00435098743757932;159.0;0.13422361747928455;0.07399492007642314;0.005492913151609158;158.0;0.1288857536703471;0.11212978222950876;0.012600297854858184;143.0;0.181943207490861;0.09999913842480446;0.010018946413885928;146.0;0.1684335785817434;0.09612224204160395;0.009258873744179236;146.0;0.16270404436393696;0.09454592575170918;0.008955892009188424;146.0;0.16138918870328867;0.09254602500165561;0.008581590397146286;148.0;0.16000073228493264;0.09153099580469427;0.008391293460596324;145.0;0.159856208823714;0.0899912825709166;0.00811035366200289;146.0;0.15970131228967893;0.10826111409128736;0.011746772951477738;141.0;0.18564841191561415;0.08793332983419962;0.0077470713867220575;146.0;0.1566153828650224;0.08726751796619095;0.0076311478652584235;152.0;0.1556960100265543;0.08789543762931219;0.007742991043674228;147.0;0.15808811413252083;0.09331996170107995;0.008729668388848144;151.0;0.16205633779220022;0.09837165189430996;0.00970196209704224;156.0;0.16334177549685577;0.10232553863806494;0.010494390335086066;160.0;0.1671725584262336;0.10952572646478365;0.012022097842501817;157.0;0.17146112075735376;0.08623457820195142;0.007452260323233737;145.0;0.15401879030241475
0.09532437714223252;0.00911609544553056;140.0;0.171759659315239;12.0;0.09318127786193317;0.008710762471977171;148.0;0.16224394559315436;0.09440601283185614;0.008941538650588656;152.0;0.1579020521254981;0.0953093018920056;0.009113589523724973;152.0;0.1558129034889172;0.09344530260028627;0.008760627189400636;149.0;0.15430231846557574;0.09201925441267364;0.008495222518151596;152.0;0.15259918344388484;0.09115682856779933;0.00833682588057477;151.0;0.15117945513437614;0.09353571217275712;0.008776627978143874;135.0;0.17482752819241662;0.08923401643072087;0.007988737320637446;143.0;0.14773780977484785;0.08745585654503957;0.007673543267501227;150.0;0.14791101160991457;0.08868051421388849;0.00788993490606621;151.0;0.15055692840136528;0.08985198087063309;0.008099396132260257;148.0;0.15062763041933294;0.08911191837325272;0.0079662844117064;143.0;0.14991741379616327;0.091389553336524;0.0083792554602002;148.0;0.15269150969041462;0.09039526805223078;0.00819817642653085;146.0;0.15518947957985643;0.08895621956550623;0.007939231434074236;155.0;0.14582314021926882;0.1691554276915549;0.028675116659894414;155.0;0.21959082108761516;0.15603179209691123;0.02440869415677529;157.0;0.20516939739825818;0.1515711908685627;0.023036119908168413;160.0;0.20007797057513546;0.14759373397875863;0.0218462345934647;159.0;0.1977167970713537;0.14384560622017717;0.020752353935306916;159.0;0.19567069439722348;0.14011480110926486;0.019690551048385806;157.0;0.19359611810900745;0.13662180274196392;0.018723638895964508;156.0;0.1918642020104824;0.1660573173788139;0.027635776809128626;149.0;0.22321380695601317;0.1321074277205267;0.017505889892582085;157.0;0.18786173898131706;0.13006417366375894;0.01696782862870637;159.0;0.18699029383973972;0.12848280013700464;0.016557553353836126;159.0;0.18725518729531346;0.13300841183975515;0.01773829571137424;161.0;0.18831010135575635;0.1364201068658582;0.018659665699277336;159.0;0.18920959087341266;0.14155381015115406;0.020090715190390726;160.0;0.19440369737505356;0.1503577029474086;0.02266453448915698;159.0;0.1994570476907741;0.13185891134490968;0.017441625661262127;153.0;0.18461381138578717
0.12773715865866947;0.016370006888599308;148.0;0.194520032979857;12.0;0.12750358519161856;0.01630956358131097;146.0;0.18575327082691306;0.13048387944129713;0.01708049608623331;145.0;0.181491713841496;0.13155088041940816;0.01736185183711709;143.0;0.1791735098938547;0.1304493048600144;0.01707229096729026;142.0;0.17745087205260363;0.12929348602426294;0.01677088603340138;145.0;0.17610036736588738;0.1286733617281202;0.016610786633319982;145.0;0.1746452068538764;0.12742557114153225;0.016289923474192745;148.0;0.20156009424999957;0.12489953700346276;0.015650146786697426;144.0;0.17159237247922227;0.12317050990939245;0.015219643733051487;145.0;0.171669543691546;0.12681812073993168;0.01613395960764945;141.0;0.17441912490477635;0.13124971238348304;0.01727993330368692;142.0;0.1759142616163407;0.13318055104969598;0.017792308999243334;139.0;0.1776019303226732;0.14032194674142623;0.019750796269226614;142.0;0.18213271882593166;0.14131956657827136;0.02003280997097785;147.0;0.18370345707959382;0.12260331215745401;0.015080525681243517;148.0;0.16813281708079691;0.1768602411192938;0.03135021100512334;161.0;0.2353938959699763;0.16696339584154407;0.02791693583615057;157.0;0.22378752457668083;0.1661248134179234;0.027645516236723032;160.0;0.22000964236989287;0.16392050651131243;0.026910030711024272;158.0;0.2181713621463025;0.16042350556250093;0.025767705308836937;160.0;0.21520178080035518;0.15558138913623903;0.024231934323996236;157.0;0.21147718353548645;0.1513729452411601;0.02294419662714057;157.0;0.2088693317640235;0.1795578091680439;0.03231080083532826;159.0;0.2394317049928929;0.14320021926306054;0.020529512806001113;158.0;0.20450714213948795;0.1393808288309928;0.019448025555322795;159.0;0.2037865623232154;0.13600138017061392;0.018521938229668664;162.0;0.20287065391948575;0.1377590323419165;0.018995872231443243;163.0;0.20350372549455117;0.13703146182605988;0.01879760292100592;158.0;0.2040256957273781;0.13979677938494903;0.01956672569601208;151.0;0.20796878272634317;0.14546491196748795;0.021183277009565356;151.0;0.21320675937922098;0.1454300963083898;0.02117886477906915;158.0;0.20296778747844194
0.13442780624154468;0.018126968719292966;161.0;0.20596192720209663;12.0;0.13962345664532413;0.019557866355934747;167.0;0.19915693828760636;0.14534971577629893;0.02119550431094848;161.0;0.19578516631416054;0.14690124880599403;0.021650483560676302;159.0;0.19357928233895294;0.14446162914420937;0.020937360784369127;158.0;0.1907293545258616;0.14152025394050466;0.020093388834458954;157.0;0.18868116606577978;0.13928910780265127;0.019464762424129263;155.0;0.18630292271301854;0.13253315099365365;0.017620853910846553;168.0;0.2128177964231748;0.1330638527447713;0.01776368988632044;164.0;0.18245519715382705;0.13110139781213567;0.017243713349685403;165.0;0.18256544208876851;0.13332624503406282;0.01783397242822404;160.0;0.18382979467635788;0.1365025622346642;0.01869370035535064;163.0;0.18515743641410085;0.1376637903277428;0.01901326329327226;160.0;0.18787700709141286;0.14462613617464726;0.0209838226612234;158.0;0.19338084181650833;0.14543718371545175;0.021221164823754492;159.0;0.19477992280076795;0.1336307465140033;0.017914927252019448;162.0;0.18055604925168625;0.18590503015679113;0.03466601708354992;150.0;0.2407414459816718;0.17786862450653054;0.03174008765449012;145.0;0.23063109862778688;0.17637597259380672;0.031210235261650263;147.0;0.2260413899211123;0.17379804422287687;0.030304563466013623;145.0;0.2238090934922688;0.16737587253933692;0.02810634194991358;148.0;0.22067529996961105;0.16157792849984887;0.026191669969615698;143.0;0.2167132937784331;0.1568383410670773;0.02467802676790278;139.0;0.21446859848383168;0.18945613535065198;0.03600213020249146;148.0;0.24520268955214172;0.14684770767437724;0.021634204785211927;143.0;0.20933195483039688;0.14344139175473508;0.020642497972148358;145.0;0.20850438749819267;0.14197476271332068;0.0202227511085481;145.0;0.20861452496975125;0.14333647628279722;0.0206118498267415;145.0;0.20999026715457672;0.14119876965061717;0.01999939334805182;148.0;0.21233069648137914;0.1452179842537455;0.02115462131264042;146.0;0.21765374843542398;0.1530690235106373;0.02350340576498943;147.0;0.22417925050160725;0.14718557042644492;0.021734473542686917;146.0;0.20864176452627473
0.1083548629322765;0.01177791231350509;155.0;0.19824376397841895;12.0;0.1141000253975614;0.013059815292858467;162.0;0.1907466716528184;0.11895974903396903;0.014195666793180224;157.0;0.1875088187733102;0.11930116458414866;0.014276639693369056;155.0;0.18493931731703647;0.11561713439850065;0.013408808697581286;154.0;0.18120953681207705;0.11140170343913208;0.012448232260866325;151.0;0.1780753104718413;0.10813124946162671;0.011727632554438162;147.0;0.17469713726112276;0.10432497029531687;0.010916943066268727;161.0;0.20192300821636402;0.10100105481204787;0.010234448551851585;156.0;0.1698825324474455;0.09804392236949877;0.009643992555469109;159.0;0.168883136356652;0.09672149351072915;0.009385556855209238;157.0;0.16834037914309088;0.09446836905006895;0.008953331711077034;161.0;0.1693407389421865;0.09410563093812788;0.008884664178836805;159.0;0.17197133164028477;0.09983347341115972;0.009999214359832791;160.0;0.17871949369529452;0.10240351086257778;0.01051979605437397;162.0;0.18346897037627471;0.10530688551461671;0.011123081481219974;151.0;0.1701093883739477;0.18408062083008098;0.033992304677683494;165.0;0.23504446697671855;0.1793487810582701;0.032266853171217066;156.0;0.229611167959144;0.17960033589553018;0.03236150008645923;158.0;0.22871158794191535;0.17706412175339797;0.03145248837016205;158.0;0.22744883233653354;0.17065370607066319;0.029216378182191395;163.0;0.22521736558052696;0.16467937994200743;0.027205444311262886;160.0;0.22162777520865115;0.15951636000884767;0.025527335905749255;157.0;0.21953243787382537;0.1864734969692936;0.03487845406312243;159.0;0.23956011010969022;0.1506940164275543;0.02278139331497907;166.0;0.21510842785761525;0.14809822604716097;0.022001097337134245;163.0;0.21404775341647028;0.14672446324695376;0.02159428870970061;162.0;0.21403972014904396;0.14710170343615994;0.02170157562049698;156.0;0.21434926894905257;0.14400436133737002;0.020798031522909353;163.0;0.21530766616370883;0.15028898049471603;0.022656122838910067;159.0;0.22034644090075284;0.15908481068920463;0.02538668132384462;156.0;0.22529441467015207;0.15296673469757674;0.023474671588513987;162.0;0.21513714462970465
0.13348412377672744;0.0178443951822586;157.0;0.20697726253029655;12.0;0.13549279272260933;0.018370637713169442;158.0;0.19741712939134204;0.13846984138580384;0.01918168718872986;147.0;0.1926513370548351;0.137221111440809;0.018842444775757118;146.0;0.1893008712683922;0.13344878394314894;0.017822899136461623;145.0;0.1865388253206733;0.13012071024543578;0.01695251786546382;144.0;0.1842695552187389;0.12763868886589907;0.016305107857920963;141.0;0.1817997007294865;0.13061337069715911;0.0170904483399346;163.0;0.2108571401413074;0.12057016448893051;0.014549908661174634;139.0;0.17656318940227272;0.11786234428151067;0.013909136250704618;142.0;0.17607251014539885;0.11549769018998328;0.013357756609430917;146.0;0.17627249654592134;0.11009751640586556;0.012139452658003879;150.0;0.1758419807818755;0.10935597755272067;0.011974883736792893;146.0;0.1768779046482399;0.11217703980764876;0.012602533351789636;147.0;0.18040012422876542;0.11174490665628195;0.01250001793170094;146.0;0.1825179534886019;0.1228273321373279;0.015097648627428826;139.0;0.17516819046492088;0.16201934748164698;0.026328701797735676;160.0;0.2325330191777912;0.1544576701088906;0.02391839661417607;146.0;0.22642942807291336;0.15598620506739724;0.024396577791338664;149.0;0.22547780476558799;0.1539639826187584;0.023764924486713905;150.0;0.22312303082202892;0.1498764880857174;0.022524634138924252;157.0;0.2200641108113747;0.14430965728168718;0.020888325271164795;159.0;0.21651785541000046;0.13934865376573566;0.01947648492922967;164.0;0.21411331842487702;0.17044250825169915;0.029141034877745445;154.0;0.24001936337474858;0.130907794164513;0.017191575165978776;169.0;0.21167548547445517;0.12944735149757186;0.016810032220150564;166.0;0.21169052981691275;0.12876145907842926;0.016631824455403895;169.0;0.2131982568751209;0.1295245235888719;0.016830697848983646;159.0;0.21558274623306148;0.12610964105665184;0.015955497521365356;159.0;0.21577482610597232;0.12957520443899342;0.016843376409411817;159.0;0.21760153547787128;0.13448869634561342;0.018145969260001893;160.0;0.2195512007879335;0.13530547104415963;0.018361592036751632;162.0;0.21070583141931057
0.14080261737815886;0.01988467999507282;151.0;0.21432276283245008;12.0;0.14272085200316448;0.020435131721060196;146.0;0.20303821739257322;0.14638535958886517;0.021498946938748816;140.0;0.19781984478980527;0.1451070915336872;0.02112543718743777;141.0;0.19387497720843352;0.14044897871467268;0.01979085713718408;140.0;0.1916373111809263;0.1359905654290379;0.018554149072965497;140.0;0.18870772859803628;0.13293981638344599;0.01773085268868161;140.0;0.18657779984542738;0.14332470129108763;0.020599903975183693;170.0;0.22299183180927512;0.12574762070786008;0.015864307169445483;134.0;0.18167889007264534;0.1231695597415174;0.01522066760155672;141.0;0.1812950011534517;0.12042947047184091;0.014550704596262109;144.0;0.18137425634750798;0.11516563949945667;0.013305154036834386;146.0;0.18112799648157857;0.11455927120227222;0.013166111185229484;142.0;0.1826350270674561;0.11739612673197429;0.013826425776596808;138.0;0.18514184435411477;0.11955205798769526;0.01433960517833595;137.0;0.1878098644588485;0.12816597540314725;0.016478838241264827;139.0;0.18002884859830348;0.14960163194414416;0.022452783136360236;154.0;0.22579584408901565;0.1371623884145079;0.018873747285509734;155.0;0.21566694484793358;0.1358311905144371;0.018509418071314884;155.0;0.21232813214160295;0.13300447426276588;0.017746886410917845;151.0;0.20923660155241833;0.1285609004398307;0.016581396039233757;158.0;0.2064554216940301;0.12289244129666059;0.01515159423519718;158.0;0.2037181007761778;0.11852879164895692;0.014092824625313855;160.0;0.2016044243785565;0.1561990260241151;0.024477394838364155;152.0;0.22911570671150264;0.11255208962131928;0.012709263714478886;162.0;0.20001783347259275;0.1119805150514076;0.012580642503370633;161.0;0.20040366193822415;0.11235372578969662;0.01266460275635847;166.0;0.2017973392488052;0.11357565990188598;0.01294157804393795;159.0;0.20339917179588243;0.111849369115126;0.012550741464298337;152.0;0.20391635409466427;0.11362270836923029;0.012952312391323599;151.0;0.20446841461502782;0.11997645216466206;0.014440658245630223;156.0;0.20740577521451106;0.11412109205542455;0.013065598701386244;164.0;0.19775136368448143
0.11418222089930158;0.013029660211649268;146.0;0.20722223245708693;12.0;0.11151769070993382;0.012409571203596346;142.0;0.19670044282569177;0.11235504784564375;0.012586870954425105;139.0;0.19179865882842898;0.1106514793738262;0.01222208528633103;139.0;0.1879489094223048;0.10633203912763493;0.01127603360430998;139.0;0.18502357685528065;0.10208278025978315;0.010407258676000033;142.0;0.18180356615150217;0.09873721869878914;0.009723750287843128;143.0;0.17886454896594273;0.12221202159612675;0.014948281968679667;161.0;0.216911615723684;0.09173429106724428;0.00839371706474987;139.0;0.1734103505703262;0.08975816096354798;0.008037722491529287;145.0;0.17260201388516724;0.08852134307430488;0.007819077930083292;146.0;0.17267031519340328;0.08737200491984282;0.007619072046825084;143.0;0.1739905611748327;0.08867444596342787;0.007851395679278544;144.0;0.17598093208126628;0.09347568996198204;0.008735697300371678;143.0;0.1802784936072832;0.09948559044616735;0.009905460325684992;142.0;0.1858751749807841;0.09369967620356844;0.0087612285728051;141.0;0.1729312463712866;0.1265134703231178;0.016054033740314406;157.0;0.20407324379294736;0.11480488503163204;0.013215803656295648;160.0;0.19382479460152277;0.11157302964960845;0.012482575798159513;155.0;0.19042448800726314;0.10903309077470467;0.011921752475924011;151.0;0.18862496147893187;0.10438092527942336;0.010924828797805554;153.0;0.18609301207722362;0.10003298963603138;0.010035961295156368;150.0;0.184637730501036;0.09651094125328027;0.009344252069112914;149.0;0.18270186992093623;0.13216683175852986;0.017516787935296943;164.0;0.2060108590406034;0.09445843343132805;0.008951303235861761;152.0;0.18106150733125193;0.09359033861570305;0.0087870914888649;151.0;0.18045776566961957;0.09201122499502404;0.008493713323072964;154.0;0.17923691379282955;0.0909906809353765;0.008306033890257252;148.0;0.17875984912762666;0.09026585599194303;0.008172776516368802;149.0;0.17849523802655268;0.09223125432084696;0.008532308083031166;142.0;0.17762113955929854;0.09956006652346266;0.009941585122109759;143.0;0.18193331109717123;0.09469359789391972;0.008995811484052561;154.0;0.17847137722394188
0.09289941104048012;0.008654526886234283;163.0;0.18451683484688738;12.0;0.084684709927314;0.00719393221936165;156.0;0.17430991672441937;0.0837864081481951;0.007042964420264799;149.0;0.17032530440944724;0.0838640515883033;0.007056254795316609;150.0;0.16778219527251872;0.0826856898497212;0.006859440164515067;153.0;0.1660120266764105;0.08204176520430125;0.0067529141605318175;157.0;0.1643813864785465;0.08003337950191117;0.00642616970758273;158.0;0.16177360915657907;0.09938799724121535;0.009904514672577629;160.0;0.18823243148558183;0.07544126413171903;0.005710016685689261;159.0;0.15621271468516387;0.0742615374114184;0.0055327361141320345;165.0;0.15540631340087452;0.0746270944105253;0.005587442858760613;167.0;0.15640830155876545;0.07553809856706373;0.005724681438407027;160.0;0.15741821519851074;0.07671420092679049;0.0059043013636151595;160.0;0.1579925554127882;0.08164353842906258;0.006687327232508651;161.0;0.1620561316004015;0.08592907508496785;0.007407944709839855;151.0;0.16690970273855602;0.07536276975594391;0.005698079973139609;156.0;0.155894377030271;0.1027495107230914;0.010591569991939163;150.0;0.15581442802106774;0.0948264676153962;0.009021247088566362;147.0;0.14914115721791513;0.09130431575434553;0.008363597160871051;144.0;0.1462877634530681;0.08879212732123354;0.007909502066718244;143.0;0.144650930824623;0.08453321520599959;0.007168517646282922;140.0;0.1420010029155888;0.08096953901804897;0.00657732301245593;145.0;0.141029051785002;0.07860163849621225;0.00619834287317248;148.0;0.1393068235617811;0.1077259243332269;0.011638823592045105;155.0;0.15800751067093985;0.0757311408812337;0.005753392331998568;144.0;0.1369768277466956;0.07415498488301298;0.0055169260287976285;138.0;0.13615855103299515;0.07194993421072082;0.005193128708440914;132.0;0.13571119789187344;0.07055364767275955;0.004992524453566647;122.0;0.1384161720354743;0.06838647841292594;0.0046910008731800915;126.0;0.13708593707118458;0.06935065524915118;0.004824554724424533;132.0;0.13490177270739057;0.07342233106266748;0.005406580529888541;137.0;0.13691431202089946;0.07673847670734543;0.005907898828939856;139.0;0.13467195515418687
0.0842304157323804;0.00711367621679259;169.0;0.16692700203831587;12.0;0.07743507534954595;0.006011636511289445;159.0;0.15690608421930147;0.07767180655859418;0.0060484326012582405;155.0;0.15381446366027388;0.07855061473210122;0.006186731166699854;155.0;0.15231554675481696;0.07789421805110265;0.0060841162032378385;155.0;0.1515504859874393;0.07745601166603278;0.00601677786559869;155.0;0.1508656890343431;0.07570378891313927;0.0057470095970966134;154.0;0.14887749104205325;0.08655628978830737;0.007509528808656295;158.0;0.17142741771599218;0.07142122233208122;0.005115606084021156;157.0;0.14592887134040758;0.0698198001706851;0.004889073947208598;165.0;0.14536218161872938;0.07015537654999056;0.00493643102567868;166.0;0.14570479344525922;0.0694710445431482;0.004840934649696622;161.0;0.14628653949933984;0.07081616639480127;0.005029610010438928;163.0;0.1496410546851881;0.07543164313434896;0.005703737477800496;164.0;0.15340429637505323;0.0814341543039348;0.006648405553319147;156.0;0.1564805650005936;0.07191721107739024;0.0051856448133698165;152.0;0.1442651507463005;0.08973945787799022;0.008068387630039546;152.0;0.1344997943682736;0.08119916348172566;0.006604461761913021;156.0;0.12407129654683861;0.07908948832788805;0.006265467131675466;158.0;0.12061754682565536;0.07888473227943611;0.006233371025474193;156.0;0.11973096114200174;0.07819234163475983;0.006125479754032836;153.0;0.11985872074012933;0.0770300857621887;0.005945288801642406;160.0;0.11998285978220437;0.07590096861725391;0.005775311428025172;161.0;0.11942829109102024;0.08724018911692678;0.007617584238664332;156.0;0.13298971008470917;0.07297799213635672;0.005338069803658641;160.0;0.11733565656370272;0.07200519190654485;0.005196084890550401;157.0;0.1168953628212284;0.07390835064270396;0.005473029202798529;151.0;0.11960373403605414;0.07858353151060309;0.006185722743709036;143.0;0.12318923733392724;0.08180213998937919;0.006700864479189429;143.0;0.12217449297470784;0.08766175862989457;0.0076913160371801645;153.0;0.12293943456493028;0.09544557815827226;0.009112201500637752;155.0;0.1271012381411887;0.07421806855971301;0.005522883516298146;152.0;0.11641234309201065
0.11578483528176925;0.013442370336107201;164.0;0.19268103450329496;12.0;0.10851366518189055;0.01180622911046453;162.0;0.1826973652419207;0.10691064173836771;0.011459269023075112;161.0;0.17820046132462417;0.10633239595370009;0.011335965517859408;161.0;0.17582603231312374;0.10482420129750031;0.011016015485851375;158.0;0.17497076685340898;0.10380324638570929;0.01080090004090695;158.0;0.17411356925303745;0.1017296574018862;0.010373567325198665;158.0;0.17218837151184976;0.11457631432978328;0.013165369988781914;161.0;0.2008127533574989;0.09628859890717689;0.0092937335695331;158.0;0.1694022881644474;0.09459202027290751;0.008966695181316046;162.0;0.1692459542329226;0.09540138755632666;0.009118276366263507;160.0;0.1698329507279757;0.0968224314613272;0.00939256499002325;160.0;0.17135189673793813;0.09629665323027459;0.009286472220081117;161.0;0.1743102708750693;0.0982565220519141;0.009664313422195063;160.0;0.17698053978980313;0.09824869815753709;0.009662239918302383;158.0;0.1774509592478417;0.09517014812482222;0.00908117264900345;154.0;0.16692229328053015;0.13477961393554042;0.018218202126111836;155.0;0.1849444363599343;0.12019809346786241;0.014486771127060864;162.0;0.1681320640595701;0.11505619580396904;0.013273194383649075;166.0;0.16122544381665194;0.1121684616123424;0.012613541736309835;168.0;0.15862792852275717;0.10941138563394955;0.012001554590929851;166.0;0.15761072735425466;0.1064972451339778;0.011370709389907389;162.0;0.15687864721148978;0.10342913980525548;0.010724491202366904;159.0;0.15548155840560385;0.1323631422758059;0.01757208901136642;156.0;0.18586029974996657;0.09720859758282749;0.009470975616245263;163.0;0.15399989819894475;0.09602081182854771;0.009242828156567212;169.0;0.15405896214632395;0.0961937709963406;0.00927476056216202;171.0;0.1556272295423305;0.10154453613897314;0.01033251229643929;167.0;0.15815892415176094;0.10778388312939279;0.011645876937862332;166.0;0.1592573978776942;0.1153147033997669;0.013333411506645848;169.0;0.1633601252576413;0.12637159350367194;0.016015998620170013;166.0;0.17129198521729164;0.09849934957617185;0.00972533728457827;158.0;0.15200684155017943
0.1249263331367499;0.01565417847802263;151.0;0.2026810560880745;12.0;0.11467287138528474;0.013189019385137139;154.0;0.19152604871171658;0.11122995464607044;0.012405074504253641;157.0;0.18543831108456518;0.10918041073355117;0.011952709889404682;158.0;0.18170511670145373;0.10725605340768067;0.011533921478393112;156.0;0.18038726368236532;0.10609516147104242;0.011285673325966673;156.0;0.17817550445992875;0.10458056317487043;0.010967333891867477;157.0;0.17670327840884958;0.13020657968912813;0.017007513667376014;157.0;0.21435113968810063;0.09984608979548;0.009997816743597406;157.0;0.17210741945939897;0.09918928578848654;0.009865905844445534;154.0;0.17218363527405903;0.10282609368325354;0.010603435843896277;152.0;0.17367900464354602;0.10579849585863359;0.01122538896380221;156.0;0.17644583735249222;0.10420510320819555;0.010889180111225158;156.0;0.17795740182289768;0.1085002055541702;0.011806850437972355;151.0;0.18296265594097857;0.10846020539097423;0.011797975028270968;150.0;0.18658079537352415;0.09685391689976652;0.00940653972538827;156.0;0.16980028086556392;0.1419089983117701;0.020179149719028896;153.0;0.20175098468972474;0.12331518184196892;0.015228123254867438;155.0;0.1852412032242813;0.11544228329365673;0.013344473907122604;152.0;0.17711275108503075;0.1100947223852678;0.012128155221648406;158.0;0.173163482917688;0.10536607962947558;0.011113404119044441;160.0;0.17050493382197773;0.10133450834901829;0.010272136362619136;154.0;0.16839241401769064;0.09703894348421394;0.009418800185932122;157.0;0.165894413604548;0.13928195522937564;0.019423433584368235;154.0;0.20044793315133583;0.09132874760505472;0.008337885792406257;160.0;0.1640436925571678;0.09035301444712643;0.00816648168011327;164.0;0.16426218927531086;0.09050861402994956;0.008196502119613815;166.0;0.16466181342218567;0.09466322929342612;0.008966353367028572;162.0;0.1671371052261395;0.09546003981471118;0.009114910608996529;159.0;0.1662551295507263;0.09808658150378041;0.00962169210525766;167.0;0.16838298163184967;0.10616797761906535;0.011268112807153723;165.0;0.17502396734397668;0.09267274526749743;0.00858566188269673;159.0;0.16190429462627948
0.09395190905056781;0.008832727591830252;147.0;0.19653729544219053;12.0;0.0872992928712974;0.007623363679768127;144.0;0.18611636740318782;0.08605399711193762;0.007409181071600228;150.0;0.18030340000286413;0.0844728968979198;0.007138223367709192;151.0;0.1762748723416505;0.08263362522579289;0.00683144478361857;145.0;0.1732691585642119;0.08124536196791086;0.006603856301082514;148.0;0.17049017127752175;0.08025739969292818;0.006440500704301513;147.0;0.1682905860792598;0.10313430705066792;0.010655643940536322;149.0;0.20648291508071615;0.07810020753903775;0.006095504210033215;146.0;0.1638252424518362;0.07809552867100295;0.006096897729860134;144.0;0.1644814757999371;0.08230665165428323;0.006764190722721414;140.0;0.16548739245259178;0.08359012214700648;0.0069793401637066495;143.0;0.16648789511614812;0.08262687504361788;0.006817887592805387;145.0;0.1694083340680204;0.08819461533466236;0.007767414988775111;142.0;0.17590129626122278;0.09401504766189628;0.008837737783065862;143.0;0.18312969727111664;0.07643107580975497;0.005842289446423618;145.0;0.16138959144003184;0.17751172517436248;0.031613097382158284;159.0;0.2274317441446509;0.15951016559729803;0.025526568774397865;159.0;0.21252713607877455;0.15326754679758173;0.023567590806358358;154.0;0.20406967777278792;0.1497875789802787;0.02250978246876197;157.0;0.19977128866852814;0.1459842079479177;0.021381232220764303;158.0;0.19630447274273136;0.14216883186893453;0.020278191713817964;158.0;0.19328857891744378;0.1370323304819703;0.01883933868817438;161.0;0.19068260568722684;0.17428839644565067;0.030475696406107068;164.0;0.22676550501092704;0.13049708765126705;0.017085315117549325;161.0;0.18790716414031514;0.12976901890276127;0.016894501901376115;160.0;0.18776402477322637;0.1321718560577599;0.017526209616491956;162.0;0.18903129359502532;0.13817297846806215;0.01915304244689652;159.0;0.19137167247249215;0.13206515894577509;0.01749791848908778;157.0;0.19007282717789936;0.1324914414290501;0.017611250480586683;159.0;0.19260896950068418;0.1399771901888907;0.01965777243132059;155.0;0.19884663116148604;0.13200812886915644;0.01748282349648578;160.0;0.1864203241215189
0.09917968540377245;0.009868741758808712;163.0;0.20539993934464204;12.0;0.09529289515247352;0.009110528005625845;156.0;0.19441292898183266;0.09561423485159083;0.009171834645390526;152.0;0.18979188942081404;0.09494888261326072;0.00904429347768;151.0;0.18681355176457343;0.09293881758047771;0.008665127982381081;146.0;0.18394839918787714;0.0911856799920574;0.008341574716113681;148.0;0.18175641684454708;0.08920429564951264;0.007982457734130805;148.0;0.1793204638485265;0.10282100033581947;0.0106057880743986;160.0;0.21028412464275273;0.08679682673474481;0.007557106496726869;144.0;0.17533489598032517;0.08682032314251083;0.007561476212332493;144.0;0.17560952686035522;0.0879044658285077;0.007751569384364856;143.0;0.17574764560747203;0.08725407480787205;0.007636683602702708;143.0;0.17495084085716753;0.08742166824589805;0.007667263375742223;144.0;0.17674194430682275;0.09110044947635235;0.008326411720811956;146.0;0.18124798332093134;0.09736492773439792;0.00951087698188964;154.0;0.18754071330374716;0.08682058386773338;0.0075609776219529475;143.0;0.17319708605790154;0.1824077545552616;0.033363206575816;161.0;0.23286434884568727;0.17139072516002524;0.029458469303077387;161.0;0.2182911399488403;0.16866029982109157;0.028530001461714596;158.0;0.2100271460266654;0.16658811073265514;0.027833025710376276;154.0;0.20642565035432434;0.16363778103930432;0.0268564206571753;153.0;0.20332079912620654;0.15947805861145392;0.025508765666746352;155.0;0.2008422544607419;0.15423694979578;0.023856891819266382;158.0;0.19811002925974328;0.18627996549982173;0.0348017342440075;160.0;0.2399839227749287;0.1448563104694747;0.021042572371858945;153.0;0.19542227728385758;0.14337343738136746;0.02061709801275607;152.0;0.19466529558893164;0.14432159140937786;0.020891491856783836;154.0;0.19529111181485942;0.1492521723696323;0.022343533266162258;152.0;0.19798325421521706;0.1446839228124131;0.02099671019636166;153.0;0.19924987810884806;0.14560343706787754;0.021265162115677978;148.0;0.20271542018061942;0.1520434855047974;0.023190472998238603;147.0;0.2086650960282933;0.1465767123035952;0.02154395991803028;151.0;0.19381721921294245
0.10943449808574876;0.012011553060976232;165.0;0.20895271072956695;12.0;0.1019229505426648;0.010420362056137415;161.0;0.19567797174595267;0.10151414671771246;0.010333270365094483;152.0;0.19008170068781768;0.10099354763252581;0.010228326945951261;153.0;0.18670642883338123;0.09881121062277727;0.009789334656712004;153.0;0.18458249986820569;0.09665208915004031;0.009367048129694291;153.0;0.18191732234552316;0.09488429399342398;0.009025001096147017;152.0;0.18029359053780436;0.11492089150598685;0.013248080390469685;164.0;0.2170578989408612;0.09037570941413174;0.008185785202645112;151.0;0.17686181500160808;0.09074394039955541;0.008253284159341878;151.0;0.17744139755299984;0.09105114473484577;0.00830950192223244;153.0;0.17642322952454;0.08932012800834063;0.007998296434642014;151.0;0.17608862573977185;0.09189378133283344;0.008463511158544115;153.0;0.17903505752558518;0.09954903323021631;0.009931284538263762;160.0;0.18523227310880302;0.10622052561726567;0.011306575223510156;166.0;0.19088671713726388;0.09004286992430104;0.008128010334088703;151.0;0.17432600099894724;0.14352124277540754;0.020665560307256064;161.0;0.22723368221599796;0.13447235631823082;0.01814104219823543;161.0;0.21137625406819563;0.13328929428217828;0.017822569779923;157.0;0.20306792828063414;0.13199105887122822;0.01747263322234524;151.0;0.19924453722725222;0.1289589101440456;0.016679897469777064;153.0;0.19616553787220536;0.12495904021206883;0.01565780388618895;154.0;0.1936711669318366;0.1202044884983117;0.014489741575584003;156.0;0.1902631598841521;0.15178295681256346;0.023112814582344213;164.0;0.23575257765497062;0.11159764754693804;0.012485010394898528;152.0;0.1871105799949942;0.11012359147066779;0.012163526567681179;153.0;0.18638287159938496;0.11014597794072059;0.012167354288589604;153.0;0.1855497910785209;0.112759282658578;0.012752096168893218;154.0;0.18582206291413553;0.11170443514447811;0.012514718728946028;154.0;0.18865040496876742;0.11224354223882371;0.012634188848988946;154.0;0.1920190287369875;0.11671882138036486;0.013665075327266796;154.0;0.19681207245964089;0.11395413693137556;0.01302172621229062;154.0;0.18580027203833976
0.10932717966988617;0.01199132343840721;155.0;0.2102102157038648;12.0;0.09937753928024767;0.009908150032696848;152.0;0.1962623205780064;0.09802402366737258;0.009639779598878156;151.0;0.18841897964774487;0.09637935264781416;0.00931935694966084;153.0;0.18311422387463672;0.0933517766290848;0.008742509704702691;154.0;0.1806325781603073;0.09047468567883324;0.008212452519031648;159.0;0.1780831658990562;0.08823019256285519;0.007809832008671585;158.0;0.17609249449021142;0.11251109758488945;0.012699869602555007;158.0;0.21723576701083525;0.08424007721252519;0.007119470995632546;156.0;0.17271724834890043;0.08350906527572573;0.0069963154812816165;158.0;0.17273128762036208;0.08210887049053367;0.006763925943851808;159.0;0.17193196409227646;0.07984002174276005;0.0063952819263161835;152.0;0.171130658841112;0.08354776952502356;0.007003034019064891;154.0;0.17542643517119738;0.09459223232675268;0.008976319835683769;168.0;0.18295156344959368;0.1038905671180204;0.010823927230407452;160.0;0.18859251198905272;0.08468883999140941;0.0071950069434316265;158.0;0.16968352059177302;0.13808697179645324;0.019120419375689583;164.0;0.23167048840853213;0.12627796723573317;0.015991850647078667;161.0;0.21540125229762602;0.12507168215070705;0.01568610663691809;159.0;0.2062878103309011;0.12406001207723898;0.015436326790991698;155.0;0.20186218300219172;0.12073337296020864;0.014620190108889613;159.0;0.19780051310598584;0.11626907715066903;0.01356187501800826;161.0;0.194664467752604;0.11241726295680816;0.01267763622912742;159.0;0.19155723933519447;0.14012427471693567;0.019691253596021766;169.0;0.2362220555677154;0.10662298204668601;0.011405499059645581;161.0;0.18686689978758864;0.10433559570884358;0.010920437714046384;160.0;0.1857704120504374;0.10306097548824025;0.010656186426800971;158.0;0.1846445140083696;0.10613389396446439;0.011301484420342319;161.0;0.18483235353733457;0.10544764221574957;0.011155349532743214;163.0;0.18746714667916564;0.10655654313929237;0.01139147647151741;164.0;0.19112010595076045;0.11121746720830242;0.01240924267986669;161.0;0.19477967289377235;0.10992273907134252;0.012122244062120532;163.0;0.18646429776699333
0.11285429040490082;0.012777682010198447;151.0;0.2072393819545217;12.0;0.10854501800534642;0.011820383746166611;154.0;0.1957230666623475;0.10952270893873708;0.012034312599794225;159.0;0.18979288466998137;0.10864670938171202;0.011842681930634051;157.0;0.18550572859435285;0.10581320216880706;0.01123297940062164;159.0;0.182917573530288;0.10281360424052959;0.010605175181216057;164.0;0.18091986688443323;0.10026824777368241;0.010085822412854628;167.0;0.17915429099528596;0.11820146182094265;0.01401723675154144;161.0;0.2192325020517804;0.09689238997924822;0.0094183430638367;160.0;0.17534052722455248;0.09701630998593251;0.00944285083818945;161.0;0.1755064452967362;0.09916522483502646;0.009865877125984895;164.0;0.17659657645378896;0.09817095875021885;0.009668834341913114;163.0;0.17685058013666172;0.09671342755893221;0.009383944220761355;157.0;0.17768304220253642;0.10400062600952086;0.01085117951824232;168.0;0.1823321687430915;0.11317400425351927;0.012849114364989447;164.0;0.1874375016841296;0.09747804912540946;0.009532951733748338;163.0;0.173415155987773;0.12660978192226446;0.01606559122229691;158.0;0.22905452597721082;0.1199003245048708;0.014413451493205965;158.0;0.2165481203291559;0.11997420983086918;0.014434782228957015;156.0;0.20946392624600602;0.11875294960453814;0.014146036778133284;154.0;0.20531519349669886;0.11586411558264682;0.013464658903449216;155.0;0.2012376623591832;0.11165631258650559;0.012505398208562717;158.0;0.19829136458516297;0.10896174010017402;0.011910906291132157;159.0;0.19593907580846548;0.12558022804803431;0.01580343314003323;160.0;0.23233464433685538;0.10384733082066315;0.010819345225397509;161.0;0.19190547042531678;0.10149995514869585;0.01033588571615541;161.0;0.1903307709042449;0.09849248987009611;0.009731555219300025;163.0;0.18881333359032035;0.09883453259332227;0.009799226868833551;165.0;0.18976155540023024;0.09787990850845861;0.009611113668995922;168.0;0.19146093135506415;0.09808579344802848;0.009652392267415445;166.0;0.19272348876489603;0.10099873942164746;0.010234280572380707;166.0;0.19498688166857775;0.10674361739520369;0.011430519318103426;161.0;0.19234155704523317
0.11655085271152424;0.013628348746627043;166.0;0.21156369545398043;12.0;0.11310539721673235;0.01283352094707769;161.0;0.20016242025726272;0.11543156375604338;0.013364641885520811;161.0;0.19522279034201065;0.11565285223689599;0.01341746757090717;159.0;0.191835101604778;0.11355969715742467;0.012935422035157624;157.0;0.18974070311131977;0.11034318004632018;0.012214279055270921;162.0;0.18722756065870252;0.10806033766503981;0.011713687003971667;169.0;0.18550587610010857;0.12389617073442408;0.015400151281847362;171.0;0.22274429218191003;0.10424680033088925;0.010902075460803393;162.0;0.1819121272831313;0.10464177889814515;0.010985235600077333;160.0;0.18254035316642217;0.10798108696180465;0.011697167955658717;157.0;0.18494919332562718;0.10766775707583666;0.011629732090457482;160.0;0.18569191242593241;0.10433870617886215;0.01092141999414899;157.0;0.18412157709742857;0.10769892023553504;0.011636593193634357;166.0;0.18557783835908623;0.11156771707928596;0.012487970229727679;170.0;0.18748616934079373;0.10573196368594204;0.011214151600999433;163.0;0.17976516467765705;0.11920757398457968;0.014253500753217475;151.0;0.2250122671267367;0.11009312171107448;0.012157586266113964;156.0;0.2144532266767537;0.10726579768554904;0.011540020393196735;161.0;0.20820405295094394;0.10560528259105302;0.011185123313553001;163.0;0.20418822000714149;0.10327297923818742;0.010697014260727417;163.0;0.20087344057326453;0.10092541592258097;0.010216128298810656;165.0;0.1989611565564307;0.09881331164417376;0.009793844202145033;163.0;0.19745576582584695;0.12347570876425178;0.015293454446807827;157.0;0.23245964128406071;0.09470028725856927;0.008995157469598744;162.0;0.19373031023969026;0.09355966505658414;0.008779944053170384;162.0;0.19256956348436527;0.09212381137262549;0.008512367267231593;168.0;0.1913311317672082;0.0910713296326516;0.008319356291699165;168.0;0.19052312147402012;0.09077221046055482;0.008265291041163119;172.0;0.19176393316468457;0.09077077052162824;0.008264485965816575;165.0;0.19342232453964206;0.09302472881949028;0.008678497120748278;163.0;0.1955033349366677;0.09630375303882857;0.009303060217435833;161.0;0.1930771126940578
0.08685747691735717;0.007568882270098731;162.0;0.16351666826369687;12.0;0.08168416561786893;0.006693886355541118;163.0;0.1546780100974059;0.08235892458900647;0.006803585837510999;152.0;0.15045684174813898;0.08151493889505339;0.00666533333915345;156.0;0.147272088061977;0.07958817247110922;0.006351238958814657;158.0;0.1471178052465208;0.07692412292896847;0.005932222695979495;159.0;0.1456219491542579;0.07532570885169236;0.005689473847461763;159.0;0.14476423725117618;0.09059474988038235;0.008234020332907413;161.0;0.16469108105540514;0.07217275824816691;0.005223579670901705;154.0;0.14049363024763822;0.07149831589185955;0.00512687153737615;148.0;0.14006655594408987;0.07237051843191127;0.005252739838708162;150.0;0.14250692362449588;0.07140243400109325;0.005113570745330585;147.0;0.14269412344200383;0.07022148741018189;0.004945491805789208;148.0;0.14049670394979805;0.07173851265486686;0.00516305941735298;153.0;0.13935252184398716;0.07258872391779464;0.005285762174939458;149.0;0.13922382960889246;0.07515718094948942;0.005663099591125614;154.0;0.13951096209536573;0.09422535854391877;0.00890606543761368;144.0;0.17367559576313066;0.08742953690486106;0.007666353977835557;142.0;0.16574415871331652;0.08601830832586033;0.007417010828478669;155.0;0.16183127219435692;0.08561908531262875;0.007350100462883937;164.0;0.1591384541014016;0.08541394353022178;0.007314042259971382;160.0;0.15801703573793746;0.08465622590496699;0.00718589942091771;169.0;0.15747157664398104;0.08342504492900685;0.0069791809905826;165.0;0.15744429161817536;0.09988577806114977;0.010009576961469703;144.0;0.18115645054505336;0.07978715439379205;0.0063821389570197975;158.0;0.15415300564659493;0.07842650726340197;0.006166068230857908;159.0;0.1528570527735707;0.07779263534279565;0.006065678580584056;156.0;0.15294895076657014;0.07786868994853205;0.00607923304808432;155.0;0.15368735252524557;0.07718273667441936;0.005972605857853603;160.0;0.15294112562550716;0.07597917457998372;0.005788508260269263;157.0;0.1539059844004651;0.07606059737277507;0.005800675884681838;154.0;0.15518276735326889;0.08273175870975953;0.0068617609651510795;162.0;0.15344469276997652
0.10129429634226945;0.010285764430314977;144.0;0.14171021542136475;12.0;0.10244557368322367;0.010520210669985985;152.0;0.14143439696708393;0.10337748283778418;0.010713251370603829;144.0;0.14191065317347892;0.10004193149745531;0.010033488745997935;155.0;0.14025661015389917;0.09497434474186439;0.009038520154891738;162.0;0.13870579095316646;0.09164118972808295;0.008411904703411594;159.0;0.13706270659223416;0.0892423115423913;0.007977403306280504;154.0;0.13621015570225087;0.09640536902701723;0.00931694301918144;143.0;0.14055171349243817;0.08372258029764754;0.007019392694793939;150.0;0.13050445309093872;0.08118846936320506;0.006601263659221313;149.0;0.12959743120825634;0.08225460416315651;0.0067785495887221865;156.0;0.1313620959707611;0.08414923738315751;0.00709514545058197;155.0;0.13149697699397098;0.0818611898377249;0.006712067922339903;149.0;0.1305237259175585;0.08302244379800916;0.006908200332938215;142.0;0.13054474926140291;0.08167481144951201;0.006687305223256298;139.0;0.13139999478970735;0.0869387901034512;0.007572026248301183;148.0;0.1325790228736685;0.11502335201602823;0.013273163877776103;152.0;0.15855738599283575;0.11206863931398389;0.012600419441519595;143.0;0.15359694395031953;0.11228318775320446;0.01264871056719296;149.0;0.15322494013978874;0.11177767915533865;0.012535007980077555;156.0;0.15225606932273822;0.11116490563631454;0.012397922224670184;147.0;0.15295985012732727;0.10941857571465999;0.012011557177912396;152.0;0.15304550352046437;0.10779207629720955;0.0116570740757262;151.0;0.15331700447225607;0.10836063988122124;0.011778620842019707;144.0;0.15701360923007138;0.1036925182298837;0.010787268415260624;147.0;0.15085181208382278;0.10174949471906139;0.010386679854946668;147.0;0.1491725665464581;0.10165997668129788;0.01036851584241935;141.0;0.14973080199196928;0.10527489897225346;0.011118853793292041;143.0;0.1532571685070229;0.1019931613408813;0.010436272217694352;144.0;0.14904240348536762;0.09954115565915314;0.009940621660132872;150.0;0.14728718819178233;0.10321451774485534;0.010687759661881542;154.0;0.14842318962172232;0.10672546191335694;0.01142734140628401;153.0;0.15141559937280713
0.12711058310319293;0.016208597712299887;141.0;0.18628081608304664;12.0;0.12772423765643812;0.01636570412772502;145.0;0.18453027521952012;0.1282645056374694;0.01650554187690595;145.0;0.18356079298522698;0.12430368641784913;0.015501903867709877;153.0;0.1811701327274678;0.11892512069105385;0.014188425701430094;157.0;0.17785074746961993;0.11484824007091511;0.013230737447341443;160.0;0.17514919187385114;0.11221448756599639;0.012627925708036579;164.0;0.17354138090330903;0.12085489596685983;0.014653411662258144;141.0;0.18515398400302138;0.10613162190180589;0.011298785163209339;165.0;0.16930650146610612;0.10331821577608638;0.010707699975297049;166.0;0.16906529729121086;0.1039105853799909;0.010831193121428474;167.0;0.16994051307630686;0.10546304750904162;0.011157482584742218;170.0;0.1702647348495675;0.102656034844367;0.010572624852610376;161.0;0.17049022310263376;0.10453285887202088;0.010962814852438022;155.0;0.172253346254841;0.10399701449011614;0.01085072465830626;150.0;0.1738098063321632;0.1099451382497891;0.012124901973464953;161.0;0.16893488374791937;0.14600985156328533;0.021388322531147894;150.0;0.20049594522367498;0.13963922295296818;0.01956279760875328;150.0;0.1906300468714396;0.13721707895837265;0.018890068901491208;152.0;0.1859433116784345;0.13560038172430652;0.018447079211538292;151.0;0.18321001269263873;0.13309537899423976;0.017772193253326584;146.0;0.1818775754644467;0.13023028319724764;0.017014953011802843;144.0;0.18013710377547118;0.12763916138539455;0.01634427001741202;141.0;0.17866638182469063;0.13742236819328452;0.01894631762551002;142.0;0.19773804759404234;0.12285969764524823;0.015142985755918;147.0;0.17444674063897633;0.12087360323501493;0.014657599094656965;147.0;0.17318800659876252;0.11866512244401073;0.014125899219624078;147.0;0.17260479431179346;0.12093397351295461;0.014671776368288371;149.0;0.17465079949042084;0.11960137915583237;0.014350699261039154;148.0;0.17383060382371682;0.11978295945240554;0.014394874761117058;155.0;0.17596504916631542;0.1260462491699087;0.01593958738811951;156.0;0.18071582643903925;0.12655133301730698;0.016067545238696544;149.0;0.17453749804574434
0.1228349113377252;0.015137341266248409;135.0;0.1938356978490675;12.0;0.11496212941883818;0.013259530878121262;140.0;0.1841547864337713;0.11297078573325268;0.012804151059586861;145.0;0.17921921571719948;0.11045585715449903;0.012240405068684108;146.0;0.17638550307930329;0.10909501643810844;0.011940266307387155;146.0;0.1752520437282293;0.10778158646964843;0.01165433206079402;151.0;0.17416982810992346;0.10655109013838482;0.011388657801175291;158.0;0.1734927374175858;0.1258107290404787;0.015878238091093903;136.0;0.1975016440967716;0.10420042804154911;0.010892863953649084;159.0;0.1714471542921979;0.1036999574240742;0.010788403935150428;155.0;0.17230150120465132;0.1045706366600613;0.01097077283634958;158.0;0.17375368699774849;0.10494029286859005;0.011048462752141075;162.0;0.17462949314489445;0.1044086901934462;0.010936652334752321;152.0;0.17470995388043678;0.10943958235970305;0.012016198264695297;146.0;0.17859584343274426;0.11304361531595034;0.0128206237476118;143.0;0.18200579190619803;0.10494434594711449;0.011048744438311525;157.0;0.1692722028417739;0.14540552405274382;0.021211557445702214;140.0;0.21587988076709405;0.13598003315884732;0.01854907346653702;148.0;0.20361651624171004;0.13325625824298876;0.017813320264988868;154.0;0.19672828518481453;0.13110200950357875;0.017240286786558163;156.0;0.19308313806753563;0.12875815503435561;0.016628565776581918;158.0;0.19156716335791904;0.12479173916115915;0.015620666832246086;161.0;0.18846415350469214;0.12074300537299622;0.014623504006941346;160.0;0.18577613639657062;0.1473903618598035;0.021794925472989272;138.0;0.21947482128227203;0.11818017289590885;0.014009369628630449;156.0;0.1831955256551153;0.11753762146906059;0.013855291972600967;160.0;0.18299999141888315;0.1160440725014808;0.01350660350209839;158.0;0.18235562969537822;0.11614751175051996;0.013526606779261255;158.0;0.18245385558558222;0.1172563289300723;0.013788215191712102;152.0;0.18377124737222167;0.11998897673870577;0.0144391372766825;155.0;0.18718813282134839;0.12512730944795347;0.015702651022233786;153.0;0.1928708907449177;0.12071770514936649;0.01461496508523502;157.0;0.18282221459326595
0.1322159977076309;0.017536146269882542;156.0;0.2007465879457041;12.0;0.12028138691136558;0.014506594935481133;154.0;0.18751839299432904;0.1160348522317932;0.013494723073778497;155.0;0.1810910425719919;0.11226113372737405;0.012634358971946162;157.0;0.1781062189782779;0.10947128780245488;0.012014606550292345;153.0;0.17695327646242093;0.10738460157889089;0.01155930974381113;156.0;0.17629263397181444;0.10495937041706367;0.01104373513512816;159.0;0.17480530674857442;0.13925877903052405;0.01945740253626034;154.0;0.20910775592765388;0.1034897425650619;0.010735542825495813;159.0;0.17321688837647306;0.10371005855331633;0.010784038669695089;158.0;0.17416387401345204;0.10619030931677119;0.01130313421917079;163.0;0.17655675373074392;0.10735231176180697;0.011552183096381485;167.0;0.17722913683065644;0.1096430483461579;0.01205437798858615;157.0;0.17881541984506744;0.11783066231248014;0.013920696842972239;148.0;0.18469481957197537;0.12120911484380292;0.014735537844537329;152.0;0.18868182441895362;0.10313932247310321;0.010663489907998622;158.0;0.17121464921199314;0.1447152921831762;0.021010564732945224;149.0;0.2221575426384869;0.1350551022003832;0.018299517133291077;151.0;0.21090410974859902;0.13525098061994073;0.018352314095721994;152.0;0.20619754560072445;0.1355750653265003;0.01843883868887293;157.0;0.20434047052049378;0.13398708322421393;0.018008843440957146;165.0;0.20326671607288696;0.13126692172664492;0.017286057583791908;165.0;0.20123551998708158;0.12812134043832604;0.016467431783370554;165.0;0.19985586172752884;0.15128213389706588;0.022961079744583616;149.0;0.22805308812883968;0.1250436426110185;0.015686418249564377;156.0;0.1972657030314927;0.1237035808694993;0.015352279290744578;160.0;0.19676876037782437;0.12407663167099081;0.01544503013253279;159.0;0.19734278133697608;0.12493924068243478;0.015660624830358925;158.0;0.19809410281275655;0.12602794347334514;0.01593482869111015;151.0;0.19897223622999463;0.13053104371224397;0.017094021219079134;156.0;0.20213953658562073;0.13854597363591017;0.019257485668300045;157.0;0.20797139496390976;0.12618757980222917;0.015975325829825207;156.0;0.19642482744014292
0.14331792776400834;0.020561386541096262;180.0;0.20749409295143087;12.0;0.1306446961789408;0.017094612297662175;178.0;0.1974062121421639;0.12490461110740742;0.01562316679929483;174.0;0.19301451908067122;0.1190309282830965;0.014189905315556;173.0;0.18982185331789558;0.11309515387488824;0.012807564919243009;174.0;0.18647906923376714;0.10769458698124193;0.011620328459054759;175.0;0.18386666282226927;0.10383222417444864;0.010801129723879137;176.0;0.18132786003362406;0.14774576457054323;0.02185860345557544;174.0;0.2165681867942483;0.10083241186050007;0.010190851144373191;177.0;0.1778988675415433;0.1004517429539189;0.010108479461079371;177.0;0.17835242191789047;0.10369963170345556;0.010769518066917512;179.0;0.17907166544365802;0.10681526227257418;0.011424837342143274;180.0;0.18077560022339492;0.11114487747075993;0.01237128173101874;175.0;0.18438227841367888;0.1223015109672822;0.014982623716136734;167.0;0.19233940930462312;0.12951644433173815;0.016795823254307275;165.0;0.19790662127170489;0.09988736859908633;0.009999612106165057;175.0;0.17607605694496725;0.1796123329707293;0.03231924214733373;149.0;0.238075851892869;0.17341351920651338;0.030123799300884317;144.0;0.22718759508583417;0.17425021265146864;0.03042157550727688;142.0;0.22264441099570914;0.17359445406144872;0.03019389611607569;146.0;0.22031958613976485;0.16959686135088192;0.02883064743769801;148.0;0.2176147509229651;0.1663609467464472;0.027738719464819445;148.0;0.2153724655472943;0.16196186812176044;0.026290403265954925;146.0;0.21358672317246827;0.17290980745110662;0.029955679812698307;152.0;0.23954214972406168;0.15350367593504993;0.023617145542360635;143.0;0.20947282724367927;0.15053878262185347;0.022708655371148436;145.0;0.20813572602574693;0.14985935778583018;0.022506362883895552;145.0;0.20853362466140235;0.15076236006430438;0.022769800135624366;144.0;0.20953752677499524;0.15000033983486183;0.02254259198332276;145.0;0.2113197717850504;0.15437598507655226;0.023878929799830195;158.0;0.21411544317986603;0.1642821539798155;0.027049130756567705;161.0;0.22037587527798735;0.15827441339904527;0.025098965822515914;142.0;0.20891016717680014
0.1357502023051386;0.018456223654374788;171.0;0.21310043199407186;12.0;0.12537105832753495;0.01573733701284743;169.0;0.20278821794164048;0.12293105321623232;0.015132029765275142;166.0;0.19803854262543397;0.1200997167398108;0.014440793386856039;163.0;0.19421618501556262;0.11627958759595389;0.013539150076706688;166.0;0.19072512391187257;0.11239647862738861;0.012659156894563943;164.0;0.18736922769455738;0.10990586743174784;0.012103678601040594;164.0;0.18521392429382208;0.1438229044707779;0.020737010990674376;169.0;0.22157280569323407;0.1074953810942801;0.011580635153798625;167.0;0.17990857137088262;0.1071532296076018;0.011507011177398909;164.0;0.18013285460656084;0.11018236150633849;0.012164016659764583;167.0;0.17999418811190365;0.11207016112833357;0.012581619864666927;167.0;0.18195257030046325;0.11460771022971672;0.013157040227016603;169.0;0.18474107995991415;0.1238565125361622;0.015367740930449023;161.0;0.19119138195364838;0.13104330503063025;0.017203055348798128;156.0;0.19700656880915493;0.10590362094465086;0.011238678428608612;166.0;0.17854115120256903;0.17972796123052723;0.032401154761413704;141.0;0.246717640735435;0.17474316927234448;0.03062834150989976;136.0;0.2360126998789658;0.17498161251489838;0.030709821773829814;137.0;0.23028418762837083;0.17282986344362866;0.02995531422830949;139.0;0.2264162442575791;0.16910666067205196;0.028683610331527724;134.0;0.22314280927801172;0.16461082108758804;0.027175704747016787;136.0;0.2207215227536874;0.1594364377039911;0.025492109831813617;134.0;0.21817338502537464;0.1738493617862614;0.030317527814410238;152.0;0.2499024061410041;0.15067759731560174;0.02277376868528706;138.0;0.2147609085954974;0.14713573674202146;0.021713070190487807;137.0;0.2136905221679933;0.14572642200817734;0.021301698900457303;141.0;0.2137799779993856;0.1459814384063489;0.02137542560926361;143.0;0.21500013565356668;0.14507193842195865;0.021110637583553908;150.0;0.2169527161789912;0.14832963235674118;0.022067313031032407;158.0;0.21911434465745241;0.15626507902839135;0.02448780854504199;160.0;0.22362774004062402;0.1550698083764383;0.02411544181786695;135.0;0.21399388529082644
0.11546076618642505;0.013342133145375974;154.0;0.20480078456806086;12.0;0.1090869316832771;0.011908644233729337;154.0;0.19536804634272043;0.10885309710825306;0.011850935630990858;151.0;0.18948505801060755;0.10793127570509028;0.011664805416858895;151.0;0.186074116479735;0.10523555695547342;0.011089036022348682;152.0;0.18309563346369348;0.10179018739644519;0.010371329109412132;149.0;0.1795533648145626;0.0995010560101679;0.009913927377466866;147.0;0.17720712858668608;0.12254024046337862;0.015033152647532291;156.0;0.212377411397801;0.09708804110898471;0.009441754986208592;148.0;0.17353352093815347;0.09757612229473185;0.009533018535752042;146.0;0.1740159838711895;0.09887831777145374;0.00978754903580307;149.0;0.17380630453113205;0.09838858366595313;0.009687599196474567;146.0;0.17503033051217964;0.09902833280813693;0.009816379236986696;151.0;0.17697814082406238;0.10344437653601837;0.0107036859020523;146.0;0.17953922031645791;0.10576521259465108;0.011186876376009536;143.0;0.18347448778436695;0.09793133895785068;0.009608240795145427;150.0;0.17311881083182484;0.16360026495516594;0.02683749336847339;148.0;0.23893401164402997;0.156715538206137;0.024627419681771807;146.0;0.22351904935621808;0.15691779811093204;0.024695995851094416;145.0;0.2157834556015054;0.15645288051546702;0.02455200842872869;146.0;0.210830407311988;0.15370442007710358;0.02369698653273182;144.0;0.20728323573255356;0.14887838852070323;0.022232347882517378;146.0;0.20507032313664988;0.14371711344994212;0.02071912000016775;147.0;0.2026759810672775;0.17152590762809292;0.02950622379478353;159.0;0.24828648012025412;0.1349543882648849;0.01826382804564607;153.0;0.19962695952699983;0.1317787919214653;0.01741549637548416;149.0;0.19921150074045937;0.13045578590714263;0.017066345956514975;153.0;0.19948319916421517;0.13073410711875139;0.017140910840498715;152.0;0.20015756881317134;0.1281723959081401;0.01647449910815511;158.0;0.20158202065118141;0.1286745638749688;0.016603446678869295;160.0;0.20561466504067397;0.13181574361132034;0.01742532058341282;164.0;0.2100629279253788;0.137860929464705;0.019062251034641882;151.0;0.19839556052252194
0.10803582523499779;0.011709290267815168;155.0;0.20631581404935798;12.0;0.10860658736919425;0.011833939862889154;157.0;0.19769942828094766;0.1117207786668509;0.012521842527634157;159.0;0.19319120434084266;0.11187329280484631;0.012556315710893289;159.0;0.19029513789420718;0.10870265014624891;0.011854725983158131;162.0;0.18776325375185238;0.10400257981297494;0.010851855035918328;163.0;0.1843922140654084;0.100852966367912;0.01020456582068062;164.0;0.18217921373998905;0.11203730127379719;0.012591033659022036;154.0;0.2158820541997754;0.0949646067281136;0.009047749222763008;154.0;0.1779336972369457;0.09400411153892643;0.00886563079029155;152.0;0.1782677790246567;0.09220740094732774;0.008529902620873674;142.0;0.17860248807031706;0.09038180734000655;0.008195152435538327;140.0;0.18019903937775295;0.09108792012497151;0.008324099416173356;149.0;0.1819323487784149;0.09791679346094567;0.009619032463676578;149.0;0.18561549349342646;0.10309082095225665;0.010662282709598455;151.0;0.19040197023815658;0.09826941057955897;0.00968841909795332;157.0;0.17814526895698682;0.16012734616610663;0.025715172644433463;159.0;0.23643109401011153;0.15316405150240786;0.023534591536603006;157.0;0.22103449176929799;0.15467031822602884;0.024001024137842605;153.0;0.21400119093220454;0.15465896352571268;0.023997466201490722;152.0;0.20980602511029833;0.15059989884521421;0.022754149932500915;155.0;0.20615348333319242;0.1461604294199943;0.021432730441535687;157.0;0.20354610234450132;0.14092425633236716;0.019924582549103353;161.0;0.20111448828726983;0.17496218370050398;0.030701470260157616;163.0;0.2505643788386314;0.13281379036590618;0.0176971139376861;162.0;0.19736332026578446;0.13037067452496148;0.017051928928803126;162.0;0.19667219577736073;0.12856705423522222;0.016583444295738787;163.0;0.19638824358420925;0.1273809957997385;0.01627867327126501;155.0;0.19566186207657194;0.1245563028324578;0.015564966783652587;156.0;0.19756283192080212;0.1268050896480838;0.01613193926468455;162.0;0.20151508362031104;0.1329052370923305;0.01772137141662225;165.0;0.20624676790608368;0.13712420678395537;0.018864485164622122;161.0;0.196456103709449
0.12608666223254422;0.015946371868050875;152.0;0.20447917786928657;12.0;0.12800972390562257;0.016435971441508206;152.0;0.19442207827993002;0.13130392832117557;0.017293597412001455;155.0;0.1903605290340447;0.13091719380066846;0.017191972888488363;155.0;0.18721929397039946;0.12698367650349923;0.01617559598807952;155.0;0.1841802670549538;0.12259471208293214;0.015074337622192334;156.0;0.18142667515635563;0.1195505585182716;0.014335236421836477;159.0;0.17953827743537878;0.12461226290135534;0.015568903626935764;155.0;0.21050392644848043;0.10934019139814977;0.011992449193591386;153.0;0.1733078060086384;0.10614297305833241;0.011299135361031352;150.0;0.17309994116193453;0.10299370019959607;0.010638406691851236;145.0;0.17379485682687448;0.09991889399308992;0.010011592039650062;145.0;0.17494453029348142;0.10049653297135332;0.010126604587157428;147.0;0.17557149885387668;0.1077788826512344;0.011643088861214401;153.0;0.17959808921379314;0.11262075258456039;0.01271648431002161;157.0;0.1828418296369751;0.11361700190492294;0.012946575978586684;155.0;0.17360764408600818;0.1488026309639313;0.022211067368912384;164.0;0.2305932596364051;0.1424050515385654;0.020341125268178835;164.0;0.22151142701054394;0.14369041728491458;0.02070861211011227;163.0;0.21693122928869954;0.14241252044533179;0.0203401825372436;162.0;0.21397146611592854;0.13758694057819176;0.018983961646071485;164.0;0.20994628084890118;0.1321409405360982;0.017513749238862994;164.0;0.20650659772126428;0.1269152785425757;0.01615712160679235;167.0;0.20333589497129423;0.1556228711366682;0.024292420665744507;157.0;0.23673625343121646;0.12371270491569564;0.015353438019735708;162.0;0.20033701906015505;0.12148989333589981;0.014806144431403654;165.0;0.19946590210575033;0.11767903708198216;0.013890872554005545;166.0;0.19827721501685502;0.11383087387004409;0.012996847995414831;163.0;0.19816324899562898;0.11229779434001447;0.01265004519606683;161.0;0.1998737040499404;0.11703058466617304;0.013735782358375876;167.0;0.20144107834488326;0.12535500211294154;0.015760185324784865;162.0;0.20415728098107033;0.12833199183314395;0.016520204627916906;164.0;0.2002209526159258
0.1017152444710508;0.010375353709516191;150.0;0.14378699609428208;12.0;0.10175908745167557;0.010386112766001465;148.0;0.1375348623902488;0.10258311569021168;0.010555200319361462;157.0;0.13488107758897536;0.10140373722654547;0.010314625042274117;147.0;0.13353092414952838;0.09806050399634043;0.009644768323024577;151.0;0.13089986303338136;0.09490710078259634;0.009034521074953887;148.0;0.12886444203584924;0.09287844388806846;0.008651968170974703;149.0;0.12853333111071513;0.09642128962278076;0.00932213920686197;140.0;0.144001063142872;0.08540837471739296;0.007313897767210451;133.0;0.12613789660676183;0.08354645958567428;0.007000180726041384;138.0;0.12711219024877896;0.08257336216523062;0.006838358637273923;148.0;0.1291727696986947;0.08063081236583575;0.006520852239843043;154.0;0.128845946448955;0.07951312341021811;0.006340314948373835;138.0;0.1260270643895571;0.08281898588626918;0.006879764661311801;139.0;0.1270473517333424;0.08448063454609496;0.007156976820100274;139.0;0.12770930379977705;0.08794133028589178;0.007757040328973583;139.0;0.12467556994107507;0.12885924533316903;0.01665908094770571;146.0;0.1956955076280078;0.12324550545651256;0.015239106076318685;143.0;0.18811952574776408;0.12250251781684164;0.015055829586198817;144.0;0.18423898949599543;0.12125608030784166;0.014750609485322167;148.0;0.1818132496581903;0.11737092330432553;0.01381942130580245;150.0;0.17918008859533524;0.11240663323447604;0.012675964534418849;154.0;0.17705918307864188;0.1077638919321312;0.011650601679688531;155.0;0.17386182286926388;0.12490253385429881;0.01565059699517787;140.0;0.19274712330298197;0.10484896332194492;0.011029178583018715;148.0;0.1715421561543511;0.10245088302368228;0.010530457093029064;147.0;0.17085464469744244;0.09934921599410378;0.009902292858430646;143.0;0.17065894925457703;0.09735994558694004;0.00950996923694038;153.0;0.1716329336533851;0.09375190973159066;0.008818154448921428;146.0;0.17092534333841164;0.09482590233244104;0.009020740736724483;145.0;0.17123205307361755;0.09762258413767967;0.00956005435514495;141.0;0.17227387513739437;0.11007082165524157;0.012154939868355287;156.0;0.17268066813378716
0.11848954779279526;0.014084062809334013;158.0;0.1426217948231835;12.0;0.12683723836810495;0.016138197067907346;158.0;0.14147274163129997;0.13374204819299954;0.017943089621151175;165.0;0.14215983979151517;0.1350740036992245;0.018302142644285736;158.0;0.1412521207192036;0.13299688397246692;0.01774391343348681;169.0;0.14023075625437278;0.12972634968315294;0.016882913180768365;165.0;0.13847528330481582;0.12819928040412226;0.01648792049747345;161.0;0.13883085617328816;0.10639068756905622;0.011355914860440177;143.0;0.13846623836582478;0.12170322646275836;0.014859179815688548;146.0;0.13706787751098354;0.1192834250668027;0.014273952586627312;150.0;0.13787888628973297;0.12069157619307129;0.014612995487531998;151.0;0.1408521657865202;0.11687132016388715;0.013701475600924672;159.0;0.13877063878337625;0.11067206290840544;0.01228705287531577;151.0;0.13373755003718593;0.10753889951437558;0.011600533471106417;154.0;0.13185425863877492;0.10321898268226479;0.010688100359764164;153.0;0.13081644952917107;0.12507730065671588;0.01569493254287383;150.0;0.13578909739787692;0.0764103577155374;0.005857521040376893;137.0;0.16942935905912215;0.0753498605738832;0.005695863625885427;130.0;0.15948342447174998;0.076759522421325;0.005911236912999187;134.0;0.15607700745583433;0.07783420009100009;0.006077496127329251;136.0;0.15436959751629634;0.07693110410306607;0.005936567680432603;139.0;0.15414412389344037;0.07565723260057797;0.005741664165822974;142.0;0.1537520222550664;0.07449368672526296;0.005565505196774543;143.0;0.1520054112368626;0.07729926858966156;0.005994683272181506;140.0;0.1733199798933664;0.07038785228058672;0.004969805589243572;143.0;0.1505501249827648;0.06836769506111684;0.004688853389774905;144.0;0.15061858011674498;0.06641138529167046;0.004424796388658099;138.0;0.15304761888589136;0.06650717422738885;0.004437283851228763;142.0;0.15597436567607006;0.06449043734352591;0.0041712579285685635;138.0;0.1538779989726995;0.06317707186468248;0.004003731111896136;135.0;0.15394570715716238;0.06402831844407772;0.004112690046556771;138.0;0.1555242329052709;0.07429458789834867;0.005536048826882658;149.0;0.15057327492403957
0.1284637789210665;0.016555598670481175;148.0;0.16717978871219785;12.0;0.13626240185120778;0.01862595493430428;149.0;0.16496338653930817;0.14296189948491436;0.020502999206581312;147.0;0.16494365467612823;0.14412308932591214;0.020835556853974715;154.0;0.1634403819434285;0.14191715430286925;0.02020333123139701;162.0;0.1621699409440803;0.13847136057849904;0.019235697191564982;159.0;0.1608448709666247;0.13698701415720224;0.018825162790996837;156.0;0.15984835094162114;0.11703513348029108;0.013741830680169839;152.0;0.1662652154965449;0.1298027487412254;0.016902393554287257;164.0;0.15676290875530982;0.1268323547295465;0.016137120132084487;163.0;0.15651196921547933;0.127268452950907;0.01624850195692296;157.0;0.1587865908294978;0.12410594915066342;0.015452228299504161;156.0;0.15758231641957846;0.11829882021809764;0.014039160854149515;160.0;0.1553077240371554;0.11615037593258044;0.013533847753205916;169.0;0.15497853119714786;0.11209600358063342;0.012605674426510416;164.0;0.15568266502812037;0.13366260762435606;0.017921566979988084;162.0;0.15654226025725654;0.0884344363300193;0.007845193424846695;146.0;0.18658449752744616;0.08316595316347429;0.006938142392519133;136.0;0.17245512696191553;0.08340557471113162;0.006977852093273623;142.0;0.1646910676558451;0.08316170573687365;0.006937417778565504;138.0;0.16085171916714838;0.08276393521524539;0.006870955048169509;137.0;0.1585693043805586;0.08089133961798764;0.006563964067648068;136.0;0.157063230789175;0.07984905196396594;0.006396584551029048;137.0;0.1557484259238256;0.09664541035364348;0.009371231961110962;150.0;0.195604580557247;0.07612984419077526;0.005814694365281381;139.0;0.15422760083176854;0.0745643229662593;0.00557800731420681;146.0;0.1548372222994398;0.07444492743839778;0.005560154111994452;146.0;0.1581869979011713;0.0783620144108701;0.006160587235981724;137.0;0.16253168996346315;0.07810476037489487;0.006120306699108548;143.0;0.16050546691235595;0.07646235569349373;0.005865535433606597;147.0;0.16082943934660412;0.07588494505663551;0.005777291810505225;147.0;0.16379326478757067;0.07747795333411944;0.006022417815358959;139.0;0.15229591934346606
0.0686898559175182;0.004727903667620039;140.0;0.14174950074063677;12.0;0.06657121752826049;0.004443463199989824;143.0;0.13621324476752192;0.06712422464838286;0.004517457503935558;140.0;0.1335508357792261;0.06620475850413995;0.00439679403653926;144.0;0.1317127809735211;0.06519906155608168;0.004264593522814323;150.0;0.13067399359039478;0.06433211935676288;0.004151007240685584;149.0;0.13051959414663067;0.06418653595361609;0.004132727738356784;153.0;0.1296862404820872;0.07242915009536226;0.005259651351635329;150.0;0.14873327944084558;0.062486196301113926;0.003916588141153051;153.0;0.12849048887734094;0.06229454133953361;0.0038929972368553214;158.0;0.12923100073262664;0.0643296608115526;0.004151020894769459;159.0;0.13238729620496115;0.06746436725320969;0.0045633973661717;155.0;0.13308194347016356;0.06438653607889884;0.0041579045105327485;159.0;0.13209935649883547;0.06803881392407239;0.0046418488435031055;161.0;0.13397290127742617;0.06892045037661285;0.004763556863596357;157.0;0.13790136984295503;0.062122409555355536;0.003871756997208392;150.0;0.12624368315186238;0.13874714945044248;0.01931076431703282;147.0;0.20828000524906787;0.13004258808239896;0.016962044481396453;141.0;0.19590155827633926;0.12909897848012813;0.016717163942418692;139.0;0.18879421142817907;0.1278430406012148;0.016392241420683244;136.0;0.18468012447632104;0.12580533610934885;0.015872836105802642;132.0;0.18170723500157063;0.12213766071938713;0.014962144466416012;133.0;0.1793121769925472;0.1196856150237423;0.01436872011531643;134.0;0.17786933390939605;0.14099021028419456;0.01994310671767527;147.0;0.21197463932762464;0.11427686501176243;0.013099332746201998;134.0;0.1747528361741175;0.11250963637696655;0.012696340834719417;137.0;0.17448676035668548;0.11213263639877409;0.012612643391367527;144.0;0.17640272296698353;0.11834974368767472;0.014048055864768707;137.0;0.18013140547277243;0.11647460276591308;0.013605942552818658;139.0;0.17837826597427664;0.11232957780282897;0.012655323783589915;143.0;0.1772352978400879;0.1118811640993984;0.012557834121843345;139.0;0.1794433412410107;0.11574488711464626;0.013436900579944447;135.0;0.17303672087984512
0.06630480608607306;0.004410740307782439;148.0;0.16366268467957526;12.0;0.06168506495296645;0.003817293951933529;152.0;0.15503421381222904;0.061522843715142085;0.0037968078309212282;152.0;0.14980804527337482;0.061697498968353394;0.0038184624505216047;154.0;0.14648551100147475;0.06146795192557124;0.003790464631277807;157.0;0.14456643994414503;0.0613678480295057;0.0037778580974083776;155.0;0.1436960001492701;0.06124445954735276;0.003762652334573827;159.0;0.1426077784284721;0.07342595711426911;0.0054090745369488056;146.0;0.16909444868909929;0.05979501968455624;0.0035861375772396208;152.0;0.14128518913754182;0.060425117600438345;0.0036625903127921315;155.0;0.14247594283862314;0.0635960626647106;0.004055985288265827;146.0;0.14502066136259734;0.06612224084272322;0.004384690299468554;147.0;0.14672512641127483;0.06411782531692954;0.004123597591372847;150.0;0.14758379370408214;0.0684206311374428;0.004694456592513691;148.0;0.1519703106822367;0.07111735244828751;0.005072248334780767;148.0;0.16009230164984276;0.058833705810621535;0.003472313977445972;152.0;0.13735212364049476;0.151886795374306;0.023137744353971826;154.0;0.2199316377833794;0.14103889148528764;0.019953060718089527;153.0;0.20687255107753838;0.13883668345593092;0.019336156369110364;150.0;0.2012090800866888;0.137253163627844;0.018898676154259553;148.0;0.19792713412478316;0.13452309210106372;0.01815467228318018;143.0;0.19585591263981003;0.1311949456683958;0.017267974810356856;143.0;0.19371294913568932;0.12906106312339294;0.016710307004768204;143.0;0.19233528658613405;0.15528942475563626;0.024184943498078235;155.0;0.2237501478887198;0.12418234304924924;0.015471552301799972;144.0;0.19004595131562585;0.1233492664695209;0.015264762449272988;145.0;0.19016638822167078;0.12236429196000141;0.015021901519023401;152.0;0.19054579316939546;0.12636631024715134;0.016020053178364496;156.0;0.1924067996773296;0.12458692666924921;0.015571552684927452;152.0;0.19231318293901578;0.1219914229514713;0.014930577242589716;151.0;0.19137245417969076;0.12514618908268826;0.01571254239116788;146.0;0.19324819464315726;0.1253203849772307;0.01575653927184413;146.0;0.1881302075775158
0.10875709214769816;0.011863272796018853;154.0;0.19697839452678978;12.0;0.09729363773623138;0.009492000285834698;159.0;0.18395114540296512;0.09388120665528484;0.008836930536736983;162.0;0.1767020900433972;0.09225199125243498;0.00853309333121953;164.0;0.17307808038828876;0.0904400178749229;0.008199718932819244;164.0;0.17062976084167633;0.08907412983619051;0.007951412419726387;163.0;0.16913452519833017;0.08752838821187373;0.007677334217543745;164.0;0.16748840703581058;0.12564577291659412;0.015836668265641507;143.0;0.20578487956389027;0.08442108213246115;0.007144618954341011;162.0;0.16488389944452148;0.08388821459714199;0.0070554877368810155;162.0;0.16573269199655943;0.08478299209201316;0.007207677121113141;146.0;0.16693190189826512;0.08649824856260593;0.007502809738520053;155.0;0.1683588749093615;0.087943727393098;0.007755669736073354;150.0;0.17136593182906984;0.09286797268538348;0.00864905036429749;150.0;0.1776384400825323;0.09601942251897126;0.009247672072585882;147.0;0.1855415360677515;0.08549924787380897;0.0073274293628461;162.0;0.1617353824979954;0.1301858928004405;0.01698590634520673;162.0;0.2186048371475741;0.12272350794640396;0.015095099763075699;162.0;0.2031141162964384;0.12330114882795318;0.015236457193147418;167.0;0.19671331114936583;0.12373898806661425;0.015346580176629583;162.0;0.19287593549897722;0.12219129885908073;0.014962686864881985;160.0;0.19053347678344923;0.11940266976933828;0.014292172345768293;159.0;0.18869076285288516;0.11710796675367521;0.013746671530153508;157.0;0.18659330666021212;0.13348444762613357;0.017857939000839686;160.0;0.22846735458690898;0.11318891984514023;0.012842316209613349;158.0;0.18595009135188517;0.11234334241771862;0.012652813405440617;158.0;0.1863815284901685;0.11118350653151572;0.012392380785126896;161.0;0.18706000763988267;0.11296265012159874;0.012784650362598397;176.0;0.1892050381265056;0.10824808712609017;0.011740449603602774;177.0;0.18854563577874367;0.10844212789582233;0.011788074285287645;170.0;0.18950915203589175;0.11228138565588398;0.012642544710562278;162.0;0.1934618503092747;0.11593567660211537;0.013475075184886377;159.0;0.18357840019975927
