rms_s1_ch1;var_s1_ch1;zcr_s1_ch1;wl_s1_ch1;rotule;rms_s1_ch2;var_s1_ch2;zcr_s1_ch2;wl_s1_ch2;rms_s1_ch3;var_s1_ch3;zcr_s1_ch3;wl_s1_ch3;rms_s1_ch4;var_s1_ch4;zcr_s1_ch4;wl_s1_ch4;rms_s1_ch5;var_s1_ch5;zcr_s1_ch5;wl_s1_ch5;rms_s1_ch6;var_s1_ch6;zcr_s1_ch6;wl_s1_ch6;rms_s1_ch7;var_s1_ch7;zcr_s1_ch7;wl_s1_ch7;rms_s1_ch8;var_s1_ch8;zcr_s1_ch8;wl_s1_ch8;rms_s1_ch9;var_s1_ch9;zcr_s1_ch9;wl_s1_ch9;rms_s1_ch10;var_s1_ch10;zcr_s1_ch10;wl_s1_ch10;rms_s1_ch11;var_s1_ch11;zcr_s1_ch11;wl_s1_ch11;rms_s1_ch12;var_s1_ch12;zcr_s1_ch12;wl_s1_ch12;rms_s1_ch13;var_s1_ch13;zcr_s1_ch13;wl_s1_ch13;rms_s1_ch14;var_s1_ch14;zcr_s1_ch14;wl_s1_ch14;rms_s1_ch15;var_s1_ch15;zcr_s1_ch15;wl_s1_ch15;rms_s1_ch16;var_s1_ch16;zcr_s1_ch16;wl_s1_ch16;rms_s2_ch1;var_s2_ch1;zcr_s2_ch1;wl_s2_ch1;rms_s2_ch2;var_s2_ch2;zcr_s2_ch2;wl_s2_ch2;rms_s2_ch3;var_s2_ch3;zcr_s2_ch3;wl_s2_ch3;rms_s2_ch4;var_s2_ch4;zcr_s2_ch4;wl_s2_ch4;rms_s2_ch5;var_s2_ch5;zcr_s2_ch5;wl_s2_ch5;rms_s2_ch6;var_s2_ch6;zcr_s2_ch6;wl_s2_ch6;rms_s2_ch7;var_s2_ch7;zcr_s2_ch7;wl_s2_ch7;rms_s2_ch8;var_s2_ch8;zcr_s2_ch8;wl_s2_ch8;rms_s2_ch9;var_s2_ch9;zcr_s2_ch9;wl_s2_ch9;rms_s2_ch10;var_s2_ch10;zcr_s2_ch10;wl_s2_ch10;rms_s2_ch11;var_s2_ch11;zcr_s2_ch11;wl_s2_ch11;rms_s2_ch12;var_s2_ch12;zcr_s2_ch12;wl_s2_ch12;rms_s2_ch13;var_s2_ch13;zcr_s2_ch13;wl_s2_ch13;rms_s2_ch14;var_s2_ch14;zcr_s2_ch14;wl_s2_ch14;rms_s2_ch15;var_s2_ch15;zcr_s2_ch15;wl_s2_ch15;rms_s2_ch16;var_s2_ch16;zcr_s2_ch16;wl_s2_ch16
0.22516713130284652;0.05080190500991666;158.0;0.20853523922631564;12.0;0.20711930680312082;0.04298389844240069;154.0;0.19746916996972658;0.18190089523529052;0.033138551285173186;148.0;0.18571799400442857;0.17150959945060607;0.029464865204243226;149.0;0.18702485268805213;0.1697653101253991;0.028865486929378674;152.0;0.18492684799136025;0.16659135083393628;0.027800256237959595;149.0;0.18253155887393366;0.16585975290001093;0.027560651272886795;146.0;0.1828866218370177;0.011761314211134617;0.00013878054281012042;146.0;0.07300649288406753;0.17030905580818373;0.029063514549846313;144.0;0.18215520581052141;0.898559044607902;0.8074843114904412;145.0;0.31390661481962395;0.18061054928588077;0.03272187625920745;138.0;0.18084135643836874;0.18758959538968015;0.035270988501619825;139.0;0.18255188127646238;0.21012439349555992;0.04425778172833125;140.0;0.18912609886826387;0.24499037836685075;0.06017660594153261;147.0;0.19764605361350626;0.2507650246233623;0.06306272748851938;153.0;0.2074307251676223;0.16672401839138226;0.027849343075098763;145.0;0.1799630620428306;0.51361729748164;0.26464872500661585;164.0;0.389536735901594;0.4733294733933276;0.22476358429330864;165.0;0.3527360381550011;0.3776737818726989;0.14310363047846458;167.0;0.31589833902566744;0.37978859783520363;0.14469869360091492;157.0;0.32841729993717683;0.3338477892846231;0.11181578004149435;158.0;0.3052636379587386;0.3112984782537184;0.09722409556253034;154.0;0.30226062393410114;0.30152855984466786;0.09121650324026105;160.0;0.3004495274923883;0.31620974258818585;0.10031511504225506;160.0;0.319023599091682;0.2840111339059368;0.08092366201071831;158.0;0.292052480731157;0.2832608127289531;0.0804976027364573;158.0;0.2908224645864497;0.28589644007981246;0.0820006781345698;157.0;0.28961109429270776;0.29775029162843775;0.08893110224660256;149.0;0.28732988259815834;0.3228281229631633;0.10450493265756837;151.0;0.28710945069424926;0.350494650554839;0.1231733677981293;149.0;0.30891672824778177;0.34318711808724955;0.11812906915516573;140.0;0.31956523523083036;0.28670086680683254;0.08246612441910756;157.0;0.2903974482520151
0.27328712564485563;0.07492948941700442;158.0;0.25574349938415825;12.0;0.25828237387765723;0.06692451902446973;158.0;0.24491015768774554;0.2429614197414129;0.0592189109687135;153.0;0.23402778400812296;0.23552649514284488;0.05565355125127328;154.0;0.23526380683297896;0.2346077693343332;0.05521792568744802;156.0;0.2348835191617091;0.2346127873027453;0.05522292619300488;155.0;0.23749389510131827;0.23539121087983939;0.05558925638974332;159.0;0.2405137860014443;0.010763540706739655;0.00011623146502763183;147.0;0.06968781189167904;0.24357651514771206;0.05952257399856722;155.0;0.2458218445434228;1.0632668845780047;1.1330791558863367;169.0;0.36381507355673803;0.27485722691714565;0.07579229742582737;153.0;0.2503116774658196;0.27756255796133256;0.07728501034214375;158.0;0.2556151405737886;0.31378573756974154;0.09877752162710778;156.0;0.26502898382556916;0.3769222127397708;0.14250567014165721;161.0;0.27982703566518663;0.3582463818521129;0.12872516532454234;152.0;0.2755544647838145;0.23753495436076577;0.05660708802125548;155.0;0.2426326614353067;0.49291597367451584;0.24376019132118434;158.0;0.39005441709365984;0.4672531090318721;0.21903864459978548;161.0;0.36097296371296334;0.3872973855124327;0.1504631495042721;161.0;0.3312282554444002;0.3780932691066556;0.14338280101674736;159.0;0.3377983808494824;0.35477976573837994;0.12623727333008208;161.0;0.32350742401399063;0.3375830942905454;0.11430062410113585;162.0;0.3193088772771221;0.328327927587744;0.10813662428246942;162.0;0.31711597908523276;0.3305690901168085;0.10962785876970568;153.0;0.3332460970620408;0.3153542708134725;0.09976303030268334;159.0;0.3116250304937758;0.31550402956955403;0.09985986271767512;156.0;0.31082895255385457;0.32164584077586955;0.10379280928999154;158.0;0.31103131773966325;0.3390657596204145;0.11534126452861357;153.0;0.31103776114444975;0.3703972970203897;0.13764200454341416;160.0;0.31285754157985873;0.39381075048138464;0.1555929616844455;155.0;0.3288491872214694;0.37538527090172435;0.1413723579737351;149.0;0.33335637543854535;0.3177087099193636;0.1012475161358837;157.0;0.30942748401158504
0.20702067610012345;0.0429299784558596;146.0;0.22141859743820744;12.0;0.20653592200259538;0.04275042941434373;150.0;0.21771967928772903;0.21183503653727462;0.04496414985207201;151.0;0.21829886072646099;0.21422563735619052;0.045970946961079104;153.0;0.22300870267419354;0.214494150906099;0.046098540100165904;155.0;0.22403213963107993;0.21537451526686374;0.04646860467567784;152.0;0.2283417737826615;0.21757784406467298;0.047438963006009784;152.0;0.23297298294465948;0.00906342184309085;8.241125387343839e-05;157.0;0.06295857410372778;0.2295809005095317;0.05282675161415316;146.0;0.2434992798666056;0.6431943403395247;0.4128240739514022;179.0;0.26012397184239333;0.26203550541614257;0.06886152018254739;154.0;0.24985274229278795;0.26914737018673657;0.0726279989726434;150.0;0.2577289149312925;0.3127945502500588;0.09812841515709461;150.0;0.26621343684267484;0.4007437869907871;0.16108949537441156;154.0;0.286980358330105;0.351341405322901;0.12381716359870071;145.0;0.26141926729477377;0.2230959501268299;0.04987605852515378;149.0;0.2390288918967927;0.24777425034696182;0.0615709798162001;150.0;0.2832928495182112;0.24791400705966188;0.061649861871606995;157.0;0.2694638119322624;0.22272486327400373;0.04976847083926087;162.0;0.24655928162686988;0.2204871707028991;0.04875242617390894;167.0;0.24779704829675547;0.21661102970815735;0.047068715475475;167.0;0.23747796770139662;0.2116999483689968;0.044962746728513574;166.0;0.2344694960037968;0.20803055114641145;0.04341666396585536;165.0;0.23346066308938093;0.19768276739499624;0.03920422878030573;158.0;0.25458977771528557;0.20700299203912384;0.04297550999665593;169.0;0.2349691468521858;0.21045156946701823;0.0444234468095054;160.0;0.23542409882942028;0.21914479220071412;0.04816502122376569;162.0;0.23625949469517823;0.23544303326681998;0.05559084507282583;163.0;0.2379156098701712;0.25966033250986975;0.06758082938700949;169.0;0.24314872134906257;0.27294874349679277;0.07467901955022732;169.0;0.254338780659161;0.26175748086670303;0.06871102001464387;165.0;0.25864283012421535;0.20509552846110093;0.04219652298866036;163.0;0.2310768920180703
0.15091679261736643;0.022830500570283005;144.0;0.1931431932760653;12.0;0.14906835859855158;0.02228080462767214;151.0;0.18955674432800929;0.14843709979605182;0.02209216915940245;153.0;0.1896813965149432;0.15060221726900924;0.02274088621579099;154.0;0.19043574949428327;0.15094022267667237;0.022840323208784364;157.0;0.19190009012872514;0.15021346473261063;0.02261984505024182;154.0;0.19326220806629477;0.15176482953927742;0.023086776372516157;153.0;0.19566412442218084;0.009113758268687896;8.329510598581825e-05;169.0;0.06441313875147826;0.1630984574861466;0.026678629120283095;154.0;0.20303908020767206;0.31816366012268715;0.10064666443008914;172.0;0.20980128622060912;0.17618337530534767;0.031142075465541246;146.0;0.2070007217008979;0.19017913029333283;0.03628617986892527;147.0;0.213184537970778;0.22589071957634577;0.05119244654326831;155.0;0.22191007769217955;0.3015931213779424;0.09124304940552765;154.0;0.24582462576599792;0.2620090492524571;0.06886087312241952;147.0;0.22938507758064078;0.15851850546890794;0.025191915197530352;154.0;0.1992966304205934;0.1909346992842373;0.036556933401973066;155.0;0.26366649644581086;0.17771398328769086;0.03164153761651171;165.0;0.23965134905270127;0.1564149922303329;0.02450283847116668;159.0;0.21583446079159202;0.15785971771478982;0.02494895459572749;157.0;0.21257920929531773;0.1528855867876854;0.023400726863728814;152.0;0.2088776002937154;0.1435013877933254;0.02063523513623263;162.0;0.2088062629331993;0.1379206260959554;0.019069236295237504;165.0;0.2089110791867626;0.13418291484541744;0.01806063187783913;166.0;0.22637781252888334;0.13833087238302716;0.019181034253096342;162.0;0.21190776177033777;0.14215506122760407;0.020250595937685575;154.0;0.21362910381938002;0.14854334946148334;0.022104587150845394;151.0;0.21454360815221887;0.16023089420330963;0.025693984204854307;148.0;0.21678289971036924;0.1776076728731848;0.03157152485874285;148.0;0.22085553520644277;0.19198964241005334;0.03686816187184568;147.0;0.2309663386891196;0.18904881597898462;0.03575511649691244;144.0;0.2354507276480911;0.1331695065575243;0.01777884258000972;158.0;0.20692768480918253
0.14023188004248385;0.019711075915951067;165.0;0.19826069342648128;12.0;0.13571990224843797;0.01846351032984349;169.0;0.19259515909718425;0.12943856883604524;0.016794106907818733;169.0;0.1884610411936585;0.12652802382584458;0.016045262503713326;169.0;0.18698780550468633;0.12523263651470137;0.01571940684701133;170.0;0.1877141867125861;0.1249175722321532;0.015641560926512914;169.0;0.1877997247757193;0.12531235091493959;0.01573985591629597;166.0;0.18863965464896323;0.008890015178480405;7.928893990936758e-05;162.0;0.06630628891806467;0.12940168835127205;0.016788088372055716;168.0;0.19375839826227975;0.15528841079438788;0.024117209027067665;163.0;0.1959327380998547;0.13083446917110503;0.01717360477944498;155.0;0.195681809680535;0.13383629015027063;0.01796511183582532;164.0;0.1980418758395569;0.14275471027261505;0.02043892534627223;172.0;0.19971816338875986;0.16235269509145173;0.026442728573611404;167.0;0.2092102412232663;0.1556163936139789;0.024291899573630503;161.0;0.2108982627839786;0.12722712081169088;0.016227953342596555;167.0;0.19088251460450584;0.1460173774509184;0.02138426930503952;155.0;0.24732539553362698;0.13533804161616628;0.01837469603153255;150.0;0.22462983655249194;0.12401516707673856;0.01542918530101348;146.0;0.20698961452533443;0.12556019657444234;0.015813073746650915;141.0;0.20403407188955575;0.12930799416494013;0.01677282064610252;133.0;0.20460014617772598;0.11688873152090493;0.013707328261473794;149.0;0.20308761715083645;0.1088106675317682;0.011878564842202465;156.0;0.20185957036958763;0.11854059798134957;0.014097854163948034;154.0;0.21673092982612285;0.11093983407062324;0.012348114604325605;151.0;0.20221575651480087;0.11195827698298241;0.012575742205660913;140.0;0.20405543980449234;0.11632655422473293;0.013574663494099509;137.0;0.20625637384744333;0.12416724402243495;0.015466590983596776;136.0;0.2094064121855924;0.13558023366519925;0.018437070237695315;136.0;0.21378251254232508;0.1527155050136338;0.023390574232787273;131.0;0.22837403209748508;0.15801907054960368;0.025048912539773635;136.0;0.2370573850042449;0.10562802439561682;0.011193179863764596;152.0;0.1991641327180314
0.13494365813481965;0.018267899098428096;162.0;0.19430642864689696;12.0;0.13229169081571607;0.017556269788856233;160.0;0.1897304853073853;0.1275134473601221;0.016309742631860736;160.0;0.18636831676780535;0.1246426600004788;0.015585215310561567;156.0;0.18445643102631123;0.12367265731903454;0.015342098728257087;157.0;0.1840819715428697;0.12417721636414529;0.015464941317574234;159.0;0.18520993164926422;0.125074323115725;0.015690668393170706;159.0;0.18713425837955658;0.009602554514964131;9.25005911190652e-05;147.0;0.06713228183450778;0.13021112374405283;0.017003962250145194;153.0;0.19408590482821497;0.13491964389504685;0.018252991078915513;145.0;0.19510143789990145;0.13034581426550146;0.017043650516341602;159.0;0.19685864856152563;0.13323629815473045;0.017802508179104844;161.0;0.19894854368638282;0.1384783282685945;0.019236240451129923;159.0;0.1979419698683338;0.1481208782491788;0.02200611745170595;156.0;0.20086785301914262;0.14223390692078303;0.02029053082065833;154.0;0.2008450366340815;0.12740678723541923;0.016281164304371338;157.0;0.19011039827985768;0.14303281890536454;0.020506210464868516;157.0;0.24252576704174844;0.13302104675458082;0.017727546699239503;160.0;0.22225758346059238;0.11777443433544213;0.013888257147572587;159.0;0.2063894012879054;0.11179814315312751;0.012513966015979296;156.0;0.20158200922258754;0.11178850027828731;0.012500136459901898;153.0;0.20104697647054084;0.10655591480455738;0.011367921480878852;159.0;0.19905152835314052;0.1036648261495928;0.010768929324554626;161.0;0.1970018064662217;0.10935143410694075;0.011992231480225114;162.0;0.21301710271552493;0.10838761928706624;0.011773147613530132;157.0;0.1980502860076087;0.10771984800345667;0.011625572927961259;148.0;0.1982046153943284;0.11071338849371794;0.012275090636442961;143.0;0.19891097899489266;0.11609037032839555;0.013498157965251428;149.0;0.1999478284791089;0.12554232703707258;0.015783205150532432;147.0;0.20425167272612546;0.13791365637548458;0.019043277841444675;136.0;0.21854809157719812;0.14254407265334845;0.02036345793134747;149.0;0.22658332826089764;0.10570430756537758;0.011199513735282848;160.0;0.19701241424479193
0.07821832118711324;0.0061224846813086745;153.0;0.1651187495927353;12.0;0.07710483114932737;0.005943958449995708;153.0;0.1627909182065384;0.07851679929299621;0.006162559617546803;156.0;0.16222624088280835;0.07914951818608502;0.006267343650139338;152.0;0.16232659925835718;0.0794624955112303;0.006316916448232449;152.0;0.16185718639734503;0.08086670820566302;0.006538752032734652;154.0;0.16269473890781316;0.08202360854049279;0.0067334765946798665;155.0;0.1648749196729394;0.010500333352090278;0.00011061821201216247;148.0;0.06774916710960222;0.08752245233959838;0.007674494269686718;152.0;0.16944899938592511;0.0860175222517516;0.007412874102896606;156.0;0.1699684954219008;0.08787511833944686;0.007733457535448067;160.0;0.1719132040815765;0.08839230677212166;0.007825117513597015;160.0;0.1721234139993995;0.09003595747112002;0.008126534827016156;158.0;0.17211711009762878;0.096547725119309;0.009351350894304718;158.0;0.17786894369579173;0.09351371446261039;0.008769003660070652;156.0;0.18249843746136293;0.08489293819471169;0.007216209107884101;153.0;0.16603019097123903;0.1245462309452845;0.015559252399780602;150.0;0.22267275694965588;0.11348772245702175;0.012921300980062014;164.0;0.199396500324595;0.10333689222800795;0.01071338177593799;157.0;0.1850664511025006;0.1031603250860082;0.010676348571569778;152.0;0.18479781890696712;0.10011437883375678;0.010055627019460413;153.0;0.1832360782772383;0.09690800739241708;0.009421455218345564;152.0;0.18219202632703246;0.09511198224105459;0.009074072707684669;153.0;0.1809398308028723;0.09368024731969125;0.008804297096778133;155.0;0.19409669844779354;0.10119343988578428;0.01027016016292542;149.0;0.18363821888508658;0.10080934088662326;0.010192066810400784;151.0;0.1834158541676452;0.10206400552119645;0.010448909705910284;147.0;0.18259432455010743;0.10530752658928266;0.011122689118262953;153.0;0.1822564364103459;0.1135380882163146;0.012928928552353853;148.0;0.18529249708286794;0.12931589849733083;0.01677299348151367;136.0;0.1978215784743061;0.13645367878080372;0.01867690967239454;146.0;0.20951594263260126;0.09837389312126779;0.00970817282681315;155.0;0.18146407398045017
0.06847419378676181;0.0047041303738487965;148.0;0.15587386750795545;12.0;0.06702653767979351;0.0045060093160555655;153.0;0.15286434226376824;0.06623593285232399;0.004399731039463217;155.0;0.150989893173532;0.06686489701097459;0.00448319669816595;156.0;0.15072585441431444;0.06722967357698927;0.004532092954657852;160.0;0.1504301658238032;0.06790424308168248;0.00462459819155965;159.0;0.15106893105213717;0.06859930781485311;0.004720122274624818;155.0;0.1526560309619768;0.01002888722152672;0.000100907930196277;156.0;0.06732378892415274;0.07306371950743341;0.005355766395743618;167.0;0.15610768250161142;0.07544977818025984;0.005711212849696341;169.0;0.15668519371366818;0.0727889021838454;0.005315492764972218;169.0;0.1574149747191315;0.07316272281371523;0.005370319229275713;165.0;0.15830111302299812;0.07792246706551202;0.0060916608575650785;158.0;0.1596598204521678;0.08861663459835611;0.00787695050692034;159.0;0.16840332556753224;0.08485311295035959;0.0072233971675827666;164.0;0.17746347085111466;0.07100976722962479;0.005057793180156464;162.0;0.1526465009913402;0.0940020329618113;0.008857154288217513;152.0;0.1995933526130245;0.08406347376622106;0.007081642315017584;156.0;0.18032183315818548;0.07855471056220506;0.006176391141335851;151.0;0.1650716171610515;0.08230756838692525;0.006779468319991921;145.0;0.1662885177808644;0.08077326750180627;0.006528910088844706;145.0;0.1652996383909521;0.07851580910325463;0.006172685681633594;143.0;0.16504266167943962;0.07819859242377167;0.006122598430867663;147.0;0.1649857933684603;0.07678761931419492;0.00591134860915804;152.0;0.17943154804557535;0.08184565830998508;0.006700277882996393;144.0;0.16702142213800003;0.08120523896608385;0.006598137625160689;151.0;0.1670341140255232;0.08137742387907689;0.006625963478595837;148.0;0.16786456652695086;0.08402057467891559;0.007065761687958165;152.0;0.17060196397328;0.09187372929213965;0.008445564696276883;149.0;0.1756049275068496;0.10901303335099755;0.011903569246077939;144.0;0.19031081825421428;0.11474789423047267;0.01319690576648397;143.0;0.20265456328631695;0.08017254770029798;0.0064352867324499775;154.0;0.16505616572900184
0.07083472031202706;0.005032941463401704;144.0;0.14937996003700227;12.0;0.06766807923302587;0.004592586452659237;151.0;0.14393426474609128;0.06609314619885005;0.004380910670656179;144.0;0.14014759292738585;0.06671918052324208;0.0044644677866532345;149.0;0.1398596346790654;0.06737151239141315;0.004552292974940001;149.0;0.14038455542290823;0.06802794614731367;0.00464094181958733;154.0;0.1417924950419042;0.06884181094991285;0.0047533669900229145;152.0;0.14343517743956788;0.010017501042468447;0.00010067803831716617;148.0;0.06842010909563279;0.07209191191425812;0.005211971053689244;160.0;0.1478847912954778;0.07475169553133543;0.0056018223564962616;161.0;0.14908899995050856;0.07251946748881567;0.005273462343393225;165.0;0.14834449087247975;0.07470667569018916;0.005594910089859433;159.0;0.15088403063054742;0.08089457159969177;0.0065593166282772114;154.0;0.152303029089919;0.09156148499707477;0.008402438040110484;150.0;0.16056776510885848;0.08415851533283247;0.007099383317292224;154.0;0.16531183469354782;0.07118395451300799;0.005081107083756272;162.0;0.1439706534042273;0.10322543404657657;0.010687992345885678;158.0;0.2126109147790853;0.08332786108424932;0.006965189953815538;160.0;0.19077243683915507;0.06723873099608284;0.004534873469385239;150.0;0.16978058068506138;0.06643483938878221;0.0044277907767861025;151.0;0.16690141471285097;0.06521691561005838;0.004266274311652036;150.0;0.16717662206224732;0.06429552377916295;0.004146663837561851;151.0;0.1673081681607046;0.06427194425800198;0.0041440217233305624;153.0;0.1673690546381788;0.0750266620974461;0.005645686010263358;166.0;0.18507134036227113;0.0661364515953367;0.004388180690336803;148.0;0.16848110261188898;0.06441515452962043;0.004162549154185939;156.0;0.16796642505187104;0.06492562726967449;0.004228467470187545;159.0;0.16900914330001285;0.06824707778835437;0.004672316674916379;163.0;0.17126034733775403;0.07516855194271957;0.0056686315785632;161.0;0.17586788639186557;0.08755411449077212;0.00769053665714277;154.0;0.18889160729103746;0.09376490888700931;0.008820557274890254;151.0;0.1991585211746839;0.06600634949669758;0.004370850262512384;152.0;0.1671377384574661
0.17555867919168702;0.03089421183126034;149.0;0.2247120073791107;12.0;0.1784844554766215;0.031892877995060645;155.0;0.2140634544513994;0.16880377262335058;0.028491911783953945;148.0;0.20377771296584177;0.1686512590066669;0.028445133260744934;151.0;0.207976063811049;0.1688084011358178;0.0284890642807654;143.0;0.20776406409614667;0.17071512521379179;0.029146223209224355;147.0;0.20813052857790215;0.17346861139613282;0.03010317987871864;148.0;0.2102363819784235;0.01050187448041342;0.00011053459723598561;142.0;0.0694208139305393;0.18202448295515686;0.03314964091870565;144.0;0.21503427574215966;0.19814871497752076;0.039305041338948445;146.0;0.2185134574395765;0.19081104077654107;0.036431417054657175;151.0;0.21955727847551823;0.19780537528438535;0.03910410209285402;151.0;0.22128099946807792;0.2123540273055807;0.04501552458184049;154.0;0.2217241640036745;0.23639865170729388;0.055745268117380224;150.0;0.22388907741571631;0.221618696747142;0.049037020537517045;147.0;0.22532079734189428;0.17877225630725246;0.0319604922831133;152.0;0.21173216290660685;0.20650881216879796;0.042645304301591885;142.0;0.2712401413066401;0.18167225769028258;0.03298661568297026;144.0;0.2434743353293804;0.1500549160132842;0.022476335101914557;144.0;0.22189236179972602;0.14420766656996178;0.02076175406477832;155.0;0.22203691258686073;0.14105181191887514;0.019870911224068893;155.0;0.22216615387779448;0.13883735799371108;0.019266338805968276;153.0;0.22112480859773026;0.13851328185595632;0.01918470366769682;152.0;0.2219366913958565;0.1634621812046744;0.02668145569343947;160.0;0.23301808551672554;0.14780205873727548;0.021846857690800255;152.0;0.22675990633043638;0.15234083544417887;0.02321147119304095;154.0;0.2277539313775601;0.15770494949127026;0.0248611239559695;157.0;0.22750326858173006;0.16700262688580914;0.02786269603676282;162.0;0.2269769882596198;0.1987493933333022;0.03946476856751871;164.0;0.2350051917764025;0.224994585857863;0.05062220894277432;162.0;0.24772398402031764;0.2224612362974672;0.04951552255606066;158.0;0.2592092779483512;0.14093334786719958;0.019864207232691757;150.0;0.22240379825949874
0.2582286313390867;0.06685291186379635;155.0;0.2784087684628346;12.0;0.25992245958342164;0.06774283588334867;161.0;0.26861948126375007;0.25349682491450626;0.06444451499621139;164.0;0.26043416773797706;0.2523581659924453;0.06387075963864902;164.0;0.26377247347108945;0.2530770533183864;0.06424152156581858;157.0;0.2642861034639727;0.25260530077925303;0.06397815511689334;156.0;0.2646746757189703;0.25373060171344275;0.06457004521768882;157.0;0.2666519710576546;0.010317785505959472;0.00010680204644948846;148.0;0.06607234693056498;0.26660432129540823;0.07129453013135734;155.0;0.27227154267280806;0.4969500185046806;0.24667110651254348;139.0;0.31108226841629116;1.3821435369003983;1.9082641842680141;151.0;0.39518996795533795;0.3070556739624733;0.09456736680508654;157.0;0.28346853361143326;0.33721469664703085;0.11404905994598322;155.0;0.28507715139152323;0.38087531515132794;0.14550005838727179;150.0;0.29383046879164715;0.35067717007852856;0.12336274019883336;149.0;0.28767427297206094;0.25805272233634;0.06678239050109225;156.0;0.2683799253870338;0.2434509039761471;0.059401027306969036;127.0;0.2885722561278631;0.22389562882180994;0.05023447307483709;123.0;0.2686918163060548;0.19758107434693134;0.03912658192085429;124.0;0.25132399704136626;0.19209502835225786;0.036993869150623505;128.0;0.24977310084383458;0.19004733713144387;0.03621583086147586;132.0;0.24988251566058958;0.18882897031747897;0.03574585939506252;131.0;0.24942036824395608;0.18841631095039124;0.03559968393311037;132.0;0.2507513934470336;0.20507895019556965;0.04217326558996394;135.0;0.2608184078841867;0.1976450707146101;0.039180020088093716;135.0;0.2571834943247087;0.20199989357765646;0.040920972848406414;136.0;0.25886827566320114;0.20839914150023012;0.04355379064636124;133.0;0.2590344732421971;0.22139083543305782;0.04916413146013932;135.0;0.259686494837294;0.25736743708469934;0.06642655963834049;135.0;0.27150969108198814;0.27961476223179715;0.07841086675265739;139.0;0.282685460590125;0.26753172279290777;0.07179032492994428;141.0;0.286892353364295;0.18782525548136542;0.03538002960753563;135.0;0.2512447530203636
0.24649531977836753;0.06092751605232066;151.0;0.2627317395634687;12.0;0.24347342313703615;0.059435644312216186;159.0;0.25591475885141035;0.24226331868868445;0.058829396056518095;166.0;0.2533748014435864;0.2424441800861683;0.05892333016820736;165.0;0.2542621367608041;0.24291501813831626;0.059144183026516764;164.0;0.25551775954844136;0.24201511437329717;0.05872632795341075;166.0;0.257083158276935;0.24324277045281867;0.059311095822481306;165.0;0.2588640639047672;0.00867671119610404;7.54074152021965e-05;153.0;0.061298738591761104;0.25670828515800775;0.06605225325584353;165.0;0.2656656433968548;0.7070523935535928;0.5006522233325214;144.0;0.3183904148899888;1.6776292887275686;2.823608949206533;151.0;0.3952199136925227;0.2927087726155692;0.08583598058162648;163.0;0.2763205095043563;0.3169926716855904;0.10060531134847385;160.0;0.2774962766379496;0.3496727001164077;0.122395332406181;154.0;0.28542139459779775;0.3195382885197776;0.10219655599832371;150.0;0.2787673013826525;0.24749197031081788;0.06140376817036921;163.0;0.2612825714170279;0.19014764825709982;0.03606866177135789;134.0;0.24799370107998145;0.18444017653360936;0.03393935820411658;132.0;0.24011070124331946;0.1720000731377102;0.02953983167538846;129.0;0.22631824156463073;0.16974927662831898;0.028791665928658963;131.0;0.2232330316401964;0.16929000452995782;0.02865950817643836;136.0;0.2236097041786634;0.16993733641290695;0.02886702394545195;136.0;0.2248161214012105;0.17124298154428966;0.029333403598705017;139.0;0.22685491833774263;0.1659802680467611;0.027453343428087147;137.0;0.23389923135638854;0.18031873007914453;0.03252307121788816;140.0;0.23324733914557605;0.18095237628950223;0.032742088252601664;140.0;0.23443424730584403;0.18433640596657366;0.03397442962860211;140.0;0.23583448595314851;0.19275923930023872;0.03714890702439728;139.0;0.237150311151217;0.21081065235048105;0.044413105612526094;133.0;0.24205005504573604;0.2195863001031332;0.04820859927250143;130.0;0.24534518950647624;0.19932376501370352;0.03973719399267071;135.0;0.2410616497320711;0.17141536519620482;0.029381049474425238;142.0;0.22824262066110304
0.17642881207439456;0.031143304661110757;152.0;0.2325778341233642;12.0;0.17230915103623867;0.029733047654720162;159.0;0.22654727277397932;0.17172075829653513;0.02952885071041908;161.0;0.22382318058659448;0.17453622713452427;0.03051446795701895;162.0;0.22434662548703674;0.17479562940067084;0.030604248069985306;163.0;0.22408854961074628;0.17496126937151546;0.030648372422718395;161.0;0.22539688472035094;0.1763077457392868;0.03113207954007209;159.0;0.2269912449553927;0.008131992706840679;6.629510234949169e-05;157.0;0.06324812327984543;0.18449755784844651;0.034100003655870056;161.0;0.2324197183487896;0.5867854293395298;0.34383643541815323;164.0;0.258174668169278;1.0141606830171612;1.021170505524033;147.0;0.23807182003644586;0.19473770883375383;0.03799213635400867;161.0;0.23989988249456803;0.20047847788243586;0.04024244574246897;158.0;0.24152149176153195;0.20663262113154973;0.042756577574513156;157.0;0.24461792127236134;0.19264696413351462;0.037181996162921595;153.0;0.24950406119659277;0.18031638938233932;0.032561608054308896;162.0;0.22877307071916747;0.14111227305503332;0.01997303138807524;144.0;0.22046716217047477;0.1387189107475491;0.01930139080542367;152.0;0.20912562168098062;0.12878133369234218;0.016634824815703223;156.0;0.19473591461395737;0.1278647647612389;0.016400662036522507;160.0;0.19349605116929136;0.1275986427785686;0.01633239383024577;164.0;0.19373797871136145;0.12905153564022795;0.016707459037643795;163.0;0.195654834134076;0.13141547000884662;0.017325421720415256;163.0;0.19769496767292224;0.1215398375518352;0.014813970116761527;155.0;0.20112150175330354;0.1421293518578251;0.020266692305026167;166.0;0.20558045638474046;0.14329188419241104;0.020598884675093083;164.0;0.2077470217629837;0.14566940204655807;0.02128704409580405;164.0;0.20982103337690053;0.14925955692866485;0.02234878867402611;169.0;0.21113223038688697;0.16015134934298453;0.025726073738457388;169.0;0.21093839592570815;0.17286220664723786;0.02996310803226807;165.0;0.21455632795203863;0.1577475656327375;0.024954333040971756;167.0;0.21043992451758722;0.13596746202247562;0.018547357180503318;169.0;0.20219044215534657
0.12475172886996876;0.015612732916986448;159.0;0.20600645983972432;12.0;0.11949860297047289;0.014325612913100276;169.0;0.19821822784358037;0.12102973826482347;0.014695262107713639;161.0;0.19276528664153256;0.12336646848731425;0.015268230273757604;159.0;0.19221212287453318;0.12492916721158419;0.015658443705290327;156.0;0.19208796732947864;0.12413184603206556;0.015459141570298696;154.0;0.19358447205622867;0.1239304806112615;0.015409635843639111;151.0;0.19654926848678056;0.008837962232870842;7.834980235513207e-05;162.0;0.0653312228664558;0.12566084418165474;0.015843119094020742;150.0;0.200502118892745;0.268870427903097;0.07203484062669534;158.0;0.20953918914699593;0.34648857384865306;0.12029979100920056;147.0;0.19775233718543395;0.13475214705726726;0.018216410044093793;152.0;0.2029696947622536;0.14345567248366686;0.020644432349264004;150.0;0.20420814729712586;0.15510660989473954;0.024136549988721966;155.0;0.2106174162234215;0.14904656444084302;0.022284371420866714;153.0;0.21948569581997285;0.1244104129647903;0.015529324262251776;151.0;0.19785906181808738;0.12379653477821771;0.01536869816802092;153.0;0.2110724505189857;0.11832250978926304;0.014032943775784613;155.0;0.1992448674163069;0.10726741568354056;0.011537019306508989;152.0;0.18539398609154095;0.10509403201999408;0.01107738874764718;154.0;0.1832614545296542;0.10436588714450246;0.010924153798068824;159.0;0.18273532922287103;0.10407022366560816;0.010863715922707294;159.0;0.1832547505444006;0.10337863235311433;0.010719680442758403;159.0;0.18380233906876328;0.10884985667525711;0.011884797745707014;151.0;0.193075503766752;0.10803587487652344;0.011704504208209312;165.0;0.18822176485306572;0.10944543992618515;0.012010927132368447;168.0;0.18972995126304035;0.11138411219371133;0.012442930049858218;167.0;0.19110845340293448;0.1138239691005115;0.012997279139737495;172.0;0.19245370485772287;0.12483870578102907;0.01563513794132842;179.0;0.19378627987001243;0.13650940410648588;0.01869457142608209;181.0;0.2017041884186058;0.133532906869757;0.017889245670723843;182.0;0.20270994822376875;0.10523198591723358;0.01110667447359493;161.0;0.186281337221955
0.12039370365861056;0.014542288127812998;166.0;0.1935204273662998;12.0;0.11427884942187345;0.01310236124661657;175.0;0.18493299422171686;0.11310818017544745;0.012833263000935454;170.0;0.17971230770860225;0.11315461326730607;0.012844176689444563;165.0;0.179621828848419;0.11396727579148551;0.013030399115765983;165.0;0.17978530699238743;0.11396236523325096;0.013029487121000992;167.0;0.18130354556791214;0.11605485572022456;0.013512421286764824;162.0;0.18476926273986907;0.008935158205623406;8.009642236049486e-05;166.0;0.06486560329740516;0.1217006615205635;0.014860373459192486;158.0;0.18935634726875675;0.15366520309579493;0.023638491311994685;157.0;0.19240302454261196;0.179848302160313;0.03233096483961839;155.0;0.19810331753732588;0.128347743103263;0.01652762488318582;148.0;0.18966019683624394;0.13683907369108958;0.018786427683953562;141.0;0.19067267631963636;0.14755330214909196;0.0218436379109811;152.0;0.1975178263225247;0.14100833896867954;0.019948696471909055;151.0;0.20706911353635404;0.11809405045599818;0.013992144537540106;157.0;0.1857532960972393;0.10939193408688397;0.012000346290641627;161.0;0.19830339441200756;0.10611834921049225;0.011284498308770447;164.0;0.19218578353584714;0.09334854085001516;0.008728107267638088;161.0;0.18220342743851378;0.08995292397684072;0.008106418058725369;164.0;0.18023589417046515;0.08904224944513767;0.007943456281575684;166.0;0.17968631887093892;0.08839339851809569;0.007830389040502267;168.0;0.1800636275204111;0.08839574187607693;0.007832598930745473;168.0;0.18082946595380403;0.10106068444094611;0.010244759767871788;155.0;0.19149219055348637;0.09319228207618539;0.00870532028464364;165.0;0.18182048752595825;0.09170722797612647;0.008429888116113962;167.0;0.1823694877436368;0.09114539338691449;0.00832684846685351;170.0;0.18379035167520708;0.09217193492476872;0.008519865794342345;171.0;0.18577998201911683;0.09966271277851048;0.009961870014356295;176.0;0.1881745225474762;0.10825060295523546;0.011754967890618312;177.0;0.19594311615269513;0.10686320012966456;0.011453000008955185;180.0;0.19823328236421292;0.08978066032016134;0.008082779812971176;164.0;0.17990587887762272
0.10343625656118344;0.010732343949278316;170.0;0.17997308465785505;12.0;0.10146760133780777;0.01032866787052027;172.0;0.17544745937875045;0.09885886472462277;0.00980498629072557;166.0;0.17370305229319094;0.09841086865254393;0.009716384852182965;166.0;0.1749479338748296;0.09852010652409003;0.009737960550738039;170.0;0.17540331270070655;0.09870492915286087;0.009774532407700393;178.0;0.17681059281880065;0.09984362884797741;0.010001255154771448;174.0;0.1782507172215047;0.009767945916342589;9.57117221310876e-05;165.0;0.06491067788066425;0.1047655339335032;0.011011401577922197;172.0;0.1794298117885969;0.11179267138137154;0.012515102483806113;169.0;0.18279068404247892;0.1247127926186195;0.015600166075752715;167.0;0.18659384012720592;0.11025550546129835;0.012195873006527747;157.0;0.18344725591030903;0.11504055895998108;0.013276713695331725;138.0;0.18519613226587978;0.1220611384512088;0.014943964501545923;144.0;0.1867423645961048;0.11505241049076981;0.013269274801283187;135.0;0.19176321946696295;0.10057314124678511;0.010147582686646959;172.0;0.17687514996150053;0.09940713695841703;0.009898845345312643;154.0;0.18294272481703552;0.0896603345162329;0.008052503131133428;158.0;0.17165126200349115;0.08191345345423391;0.006727218994261875;160.0;0.16261306036063244;0.0808551603994853;0.006556142870958781;156.0;0.16265845688153963;0.08096959329346184;0.006575533280868392;154.0;0.16366827403387246;0.0821723452304015;0.006772738748811477;155.0;0.16599532364863576;0.08371617223412034;0.007030169647266935;154.0;0.16910586562187926;0.08827801573649613;0.007817052969576856;154.0;0.17167967451502472;0.09076127265457325;0.008263203971103786;145.0;0.1730905646023549;0.0919479200263654;0.008480755289937334;150.0;0.1757201249810993;0.09212249624757474;0.008513187700372663;155.0;0.17797806158230398;0.09378542301813748;0.008823879861160205;156.0;0.17961996296042546;0.09742010272157997;0.009519357292541556;156.0;0.181053433503876;0.10172303198080754;0.010376236469533234;148.0;0.18754456990696164;0.1017873860043943;0.010392567180443828;161.0;0.188767079188425;0.08655093779271138;0.007515136066281094;154.0;0.1705962803736942
0.08893248977219133;0.007932775146465393;171.0;0.17450421628780094;12.0;0.08832029148765146;0.007821323127944955;164.0;0.17138468333235252;0.08712985555846896;0.007612060487047299;158.0;0.1718582108051326;0.08817722731125469;0.007798216023938356;160.0;0.17348700399936745;0.08871902085234715;0.007895260225938288;159.0;0.17470344272678054;0.08998811325509871;0.008123832040067147;167.0;0.1768901505917279;0.09093715361448007;0.008295076649184935;167.0;0.17733621389942736;0.010378793916419623;0.00010805411481663563;159.0;0.06575126930296428;0.09303489320365235;0.008681796324805355;174.0;0.17686831290925267;0.09863245438753651;0.0097440915460801;165.0;0.17875202086696837;0.1057434947423995;0.011208582013304763;170.0;0.18074745690930083;0.09626925799699065;0.009295840422187403;167.0;0.17917164330506075;0.10073738141979827;0.010178786705250685;157.0;0.18048526222550176;0.10870730345798094;0.011849947322235849;154.0;0.18285065600244949;0.10788106056472846;0.011671516293199529;150.0;0.18932270284494349;0.09080509681110718;0.008271659497087393;171.0;0.17604524948398131;0.09952628680011524;0.009937655885908558;152.0;0.1827530892122898;0.08655266740781278;0.007511941799471726;147.0;0.1681499737442745;0.07709106605908878;0.005956752292347529;149.0;0.15369041715727338;0.07516469126263464;0.005660753157550277;141.0;0.15271633722105826;0.0750729078153875;0.005648510817245506;137.0;0.1548510466136259;0.0758125458594642;0.005758838187929112;136.0;0.1578653781291097;0.07627007818977241;0.005832083799264932;138.0;0.16115943515556436;0.08604452483792832;0.0074232660723156435;150.0;0.16558594905369978;0.08278211407344521;0.0068675705779697735;139.0;0.16843587768996518;0.08551322310974278;0.007329426648266108;143.0;0.1705446723665315;0.08753606577889177;0.007679580832119154;140.0;0.17328303305592202;0.08954598850609811;0.008038213081161689;143.0;0.17374730014629808;0.09128098458827846;0.00835299719161013;136.0;0.17403457480110252;0.09355209574572401;0.008775049971181323;131.0;0.17820967211717342;0.09295955869974223;0.008663335162455365;140.0;0.18040687410795017;0.08084752734012797;0.006550340492157315;142.0;0.16696656533143867
0.08589251488636343;0.007401172950341204;163.0;0.16795176445590082;12.0;0.08322072519642242;0.006943190147372291;155.0;0.16388704130402384;0.08124229193196959;0.006616873427486628;158.0;0.16117659873867812;0.08163935860225105;0.006683468805028533;156.0;0.16165905706345385;0.08215756732906003;0.006765546737446696;150.0;0.16269137776469356;0.08305158402496639;0.0069163020289571995;153.0;0.16393506515218362;0.08341625894139064;0.006976195846065842;155.0;0.1638557169587588;0.009790807598026568;9.616869410209835e-05;152.0;0.06683713383748827;0.08420557572196087;0.007110682538144503;162.0;0.16276444306102514;0.08625510562821025;0.007461274704466867;160.0;0.16437045050276583;0.09307844792747462;0.008686671324653764;160.0;0.16524957050224015;0.08692546419982924;0.007580341349363914;161.0;0.164946659913284;0.09148751908032703;0.008397364879667272;160.0;0.16724260809139313;0.10003889805441935;0.010040383353817165;154.0;0.17358034054467147;0.10649887179531034;0.011378988198386434;168.0;0.18774109091045615;0.08262730115889588;0.00684644789771326;157.0;0.16130490945420997;0.08630141297129058;0.0074685137644559365;156.0;0.18101028623329388;0.07883365393914726;0.006233655762278856;156.0;0.1700543775106835;0.07270530116400181;0.005302005068865134;159.0;0.15714392623214324;0.07156179577084575;0.005137039368895233;155.0;0.1566639863985182;0.07077251623113844;0.005024291310402217;155.0;0.15798819236963443;0.0705200963481057;0.004988909502130833;157.0;0.16003267149793543;0.07033741511509523;0.004963196582567133;160.0;0.16150636667603424;0.07639386720157199;0.00585379525868143;148.0;0.1674038707624791;0.08118726505984082;0.006612297253237757;158.0;0.16965776856775436;0.08024882478267664;0.006460372437799548;156.0;0.16980556325919563;0.08143788030626477;0.006652953266362163;154.0;0.17193568506116996;0.08442193145705106;0.007149528572466714;151.0;0.17258572621629067;0.0907590884375856;0.008263042301448595;147.0;0.17459158078340387;0.09837943091679399;0.009708927340652311;151.0;0.18391297016542557;0.09115833294716325;0.008336630223022131;153.0;0.18663218818808106;0.07757491662913059;0.006037447354778419;157.0;0.16860064384404663
0.09836870568691373;0.009694177948474722;146.0;0.17773934267330602;12.0;0.09611403228932798;0.009249257724898841;147.0;0.17259974141708484;0.09133314591635576;0.008349901217408449;147.0;0.1686926986097249;0.08798297040176217;0.0077499437718830146;141.0;0.166740006540899;0.0875110879924113;0.007662974599062495;139.0;0.16828464381160252;0.08810891309506345;0.007769041375279853;140.0;0.17067119030254568;0.08872077428954339;0.007877421185267165;138.0;0.17171774117577684;0.010144049170736115;0.00010323457318234742;144.0;0.06771382096287364;0.09146619075909926;0.008377186863033634;140.0;0.17339250388472002;0.0993294286655291;0.009860850954795474;135.0;0.17641334487852578;0.10449310985765697;0.010936764351310588;140.0;0.1787667051664546;0.09873933440093342;0.00975911661530945;143.0;0.17770071709775923;0.10334779277882433;0.010690587709008227;141.0;0.1809964371578005;0.10714686385145959;0.011489298366327325;146.0;0.18585929153707792;0.11215994287579473;0.012590352578802312;158.0;0.1943630092505563;0.0889100619842548;0.00791019595805823;138.0;0.17085567909377514;0.0848176675829396;0.007214949500253054;167.0;0.17908145040209725;0.07779741629990836;0.0060651540258270485;170.0;0.17009281245127658;0.07012103743918549;0.004926753249869465;156.0;0.15962756334585795;0.06858774677245512;0.00471368628297391;152.0;0.15851854172855823;0.06793002495046502;0.004624032936740162;156.0;0.1587835416902638;0.06758238469601072;0.004576670108345288;159.0;0.1600492420105784;0.06781255467046074;0.004608759192408444;160.0;0.16055270336791225;0.06620471472520251;0.004396272569502686;157.0;0.1631166781955894;0.08006797429911676;0.006420886361825697;155.0;0.16789335257389834;0.07699817629766631;0.005940321449274714;155.0;0.16770236532489086;0.07640618959516667;0.005848429455720363;158.0;0.16900186150645177;0.07827192643767839;0.006138329841370941;155.0;0.17018610797192787;0.0841446358144632;0.0070966172597450965;152.0;0.17427938770759901;0.09536190571049805;0.009117505216886278;154.0;0.186775691053948;0.09006886520723413;0.008131289645938336;161.0;0.1871119351403826;0.07531661873244795;0.005681660684138919;151.0;0.1669596933791332
0.24329048374661918;0.059330782057011734;156.0;0.2671323875383227;12.0;0.23916306490799374;0.05728444223462841;155.0;0.25822601860593053;0.23022224069610767;0.053081465194943604;155.0;0.2445610872132299;0.2313771018585651;0.053625557040263505;156.0;0.24503190877325826;0.2284324025984581;0.05226962850821507;157.0;0.2441874700931921;0.22705618734507968;0.05163195287434962;157.0;0.24532861024948563;0.2282141734558876;0.05217590856341791;154.0;0.24774061194219554;0.009654162329851258;9.347220467637961e-05;142.0;0.0651355531500724;0.24209555418204298;0.058717099904261584;159.0;0.2538014959629839;0.25417502220607974;0.06466966601947288;152.0;0.2580999439000059;0.26044282240727545;0.06796851372948158;153.0;0.26112137094050497;0.263928427361737;0.06974982775156967;159.0;0.2606454989157711;0.2853341638832465;0.08150766909212785;157.0;0.2658559005067057;0.3382557529171125;0.11461275948477524;166.0;0.2786883421791938;0.3149476018136799;0.0993872213619509;168.0;0.28203199929627043;0.2328450725628145;0.054322736799004484;156.0;0.2502236714963949;0.20052101051360524;0.04033968774974002;167.0;0.23349490689507246;0.18168585575561633;0.033117377415553456;169.0;0.22165940474394902;0.15801636475720277;0.025050430522760517;153.0;0.20962326032579892;0.14797128552307579;0.02196675837302293;148.0;0.20498467925291192;0.1433620228560557;0.02061950999418017;152.0;0.20366666302460826;0.14059789341441178;0.01983227872183156;151.0;0.20385340026183282;0.13864951370931125;0.019286414063241622;149.0;0.20346064382056864;0.16345983504203435;0.026806004307080356;162.0;0.21496452166070545;0.14016992777514128;0.019710974687237152;152.0;0.20550284907179633;0.14127652714201325;0.020022177139611595;150.0;0.20745231440445386;0.14191949059880116;0.02020482089159316;153.0;0.20927980588322814;0.14378100445814193;0.020739238619618468;151.0;0.2109855620841971;0.14710792286151872;0.021705147620786448;138.0;0.21312544443190315;0.15580672515377333;0.024348102206654117;136.0;0.21889629415294257;0.155000431123232;0.024100168181273512;143.0;0.21969927549119594;0.13912986445575257;0.01942037301015979;148.0;0.20578065514558497
0.30288521582163297;0.09202356075788412;168.0;0.30670077162136417;12.0;0.29548721607320694;0.08757263836295842;158.0;0.29880910252500426;0.28327637721914456;0.08048393599417267;165.0;0.281601051410413;0.2840089796239202;0.08090495695181463;172.0;0.28065018751056314;0.2798104791749155;0.0785384644700796;168.0;0.27934769638019114;0.27783989058296704;0.07743181141468204;170.0;0.2814601335473128;0.2775363129827649;0.07727080263368674;168.0;0.2845791377501134;0.008769777386462488;7.716183885721952e-05;150.0;0.06264890406034658;0.2895168939189342;0.08408295995125473;172.0;0.2909638358953836;0.30027494019936246;0.0903895916806057;172.0;0.29371451005843086;0.3025344932715625;0.0917916854558498;167.0;0.29451110537838365;0.32101771841279075;0.1033695470370911;172.0;0.2988734647048786;0.3505711373451156;0.12327434757834341;174.0;0.30213103508784606;0.40413576277716595;0.16379608061982145;173.0;0.30780872867936804;0.37179677191302746;0.13863736662922213;168.0;0.3045182238283052;0.2796959890204024;0.07848040993946108;169.0;0.28653758383036354;0.22086923097501895;0.04893094537000782;163.0;0.26380237993823613;0.20024628356315857;0.0402207741965538;158.0;0.24941962847370613;0.17376909362597234;0.030289745897628766;156.0;0.23195825292041142;0.1631556743959432;0.026700836680229958;153.0;0.22600770812131482;0.15834630656426307;0.025149247565998043;155.0;0.2240389526333063;0.15553576516670253;0.024261993803538197;153.0;0.22397593966899523;0.15435023976581838;0.023892574735222664;155.0;0.22421488401767026;0.17995077529655354;0.032466704192272544;155.0;0.2393100915860101;0.1546868112028217;0.024003523282127584;157.0;0.22550177466040394;0.15703500703741674;0.02473854609716761;158.0;0.22779839982228514;0.15956952243538614;0.02554334003033953;160.0;0.23000917448162986;0.16295686459622427;0.02663720990060656;149.0;0.2318605818430084;0.1664639393082676;0.02779858140756413;135.0;0.23282434055886855;0.17205059334862838;0.02969352139803393;134.0;0.23765474870935505;0.1711307515119037;0.029379692168110164;137.0;0.23782537709410356;0.15337374672539048;0.023597742518706662;157.0;0.22489934088809407
0.22994792094274855;0.05298336302339669;164.0;0.26120568841597774;12.0;0.2207135714088052;0.04880726173862234;158.0;0.2577727607619389;0.21135720050352236;0.04475549349484221;165.0;0.24834640098768673;0.2095057581231883;0.04395922815779058;161.0;0.2461482271086738;0.20675272766091746;0.04280290448127072;156.0;0.24617252695837014;0.20564399356415236;0.04235656348290457;159.0;0.24874749854242612;0.204030107458819;0.041685014398471214;160.0;0.2511815734899712;0.009086836668707141;8.277182222937802e-05;157.0;0.06397977923641267;0.2075234724409303;0.0431389518039716;159.0;0.25703712489180036;0.2097133755184757;0.0439972263246002;160.0;0.25901474703351723;0.2632885378214745;0.06938722949334183;158.0;0.25967144687264954;0.23148483577264067;0.05366576951466042;167.0;0.26389194503029223;0.2556350960379684;0.06544120381864235;167.0;0.2651278229264397;0.2775590439302948;0.07722842185923444;167.0;0.2655832728852818;0.255254131291269;0.06529572128968233;164.0;0.2727031374077714;0.20288113183528114;0.04122857663121416;163.0;0.252988473171021;0.13614626626433954;0.018595976855526372;165.0;0.22759480632296802;0.12084975115397906;0.014649488771484;155.0;0.2130000824923577;0.1070091687915966;0.01148816813166367;153.0;0.19785704390002495;0.10340491791182091;0.010726923851934056;151.0;0.19479966614889227;0.10169437855317444;0.010375140459288407;152.0;0.1935553413292161;0.10102764004693413;0.01023930181630502;150.0;0.19393436156673893;0.10247209642455865;0.010534421673744876;156.0;0.19507772896311898;0.11366984423026258;0.01296236987510692;154.0;0.2049026290711682;0.10224051895917234;0.010481926487343994;159.0;0.1983052784981281;0.10239815202003029;0.010516451555693923;161.0;0.19866721418459307;0.10357820636347292;0.010762254039431995;156.0;0.19862959713191228;0.10632646943549932;0.01134183151635231;151.0;0.19960691370838407;0.11111954718707799;0.012386891859451903;141.0;0.20214223308515505;0.11622756876790258;0.013549028066521905;138.0;0.210418469352684;0.11531000078169107;0.013339675322675694;142.0;0.21059152683804183;0.09973000927160258;0.009978656208866905;155.0;0.19590470578669048
0.17557687820140988;0.030822956292661612;151.0;0.23497972562896358;12.0;0.17539433959980916;0.03079644955201683;147.0;0.23399158019959196;0.17048665386732972;0.02911156634023024;144.0;0.2296140307606398;0.17110273116872476;0.029311248295222157;136.0;0.23009156087074825;0.1703371799650323;0.02904659997120285;135.0;0.2309102544748608;0.16867942988693735;0.02848719156317142;136.0;0.23186266177351456;0.16792274105913313;0.028216459088178405;135.0;0.2336911212145266;0.008725800994135504;7.638586875141542e-05;153.0;0.06334422977367983;0.17267084723388196;0.029830486970146945;133.0;0.23938581538285883;0.17311411341151522;0.02995544983775938;136.0;0.24178855827587536;0.24355098090754151;0.05949156233450027;149.0;0.24474414742531317;0.18460099996811566;0.034086940295696685;142.0;0.24737114909422306;0.19926348679614198;0.039663783889262096;136.0;0.25182695947247086;0.21997699175352056;0.04835843135500473;143.0;0.26030679503716575;0.1993869579318471;0.03974625042423492;139.0;0.2654078742640705;0.1693407439359439;0.028713181588176342;137.0;0.23597575358036207;0.1198278872797757;0.014401883958897986;167.0;0.2120253908632755;0.10407269219265854;0.010865420408948912;162.0;0.1928080763480514;0.09193868678756352;0.008478919854010667;166.0;0.17769916907626265;0.08815634489127133;0.007796392571132969;164.0;0.17520731490102032;0.08627784150003807;0.0074670006112715044;166.0;0.1740851737737229;0.08573241255154215;0.0073729215675079314;164.0;0.17469597923415855;0.08673524866693247;0.007545323608039299;163.0;0.17564226499815971;0.09888478049240014;0.009804976463175342;175.0;0.18416503545909163;0.08635152559107097;0.007480610689283098;161.0;0.17755262696044705;0.08513520491017308;0.007271531301349985;160.0;0.17838899856281945;0.08254727979947231;0.006836323945216742;150.0;0.1779948292708765;0.0838449682526084;0.007052945773225383;155.0;0.17901987735778463;0.08934043612700261;0.008007797573422865;152.0;0.18090069184773747;0.09927234484495424;0.009887177249833326;153.0;0.19209654177234858;0.09930665455210674;0.00989407171271904;157.0;0.1969582171735733;0.08456382341783349;0.007174342484597873;163.0;0.17556495452109502
0.17799858664537554;0.03177903572227453;144.0;0.247625410543987;12.0;0.17922963121842636;0.03222253666678118;142.0;0.24438958617776188;0.17620598811833132;0.031147690227851833;135.0;0.23843160300579586;0.17680116497837597;0.03135720311567131;136.0;0.23801816782960364;0.17708697979922805;0.03145520424908918;136.0;0.23962497890747717;0.17730761237638573;0.03153534744134893;133.0;0.24146323745548684;0.17824985871900123;0.03186919555185824;130.0;0.24438488696247762;0.008138957806375566;6.645999324516451e-05;152.0;0.06217195621117464;0.18319818201648955;0.033658983947505;129.0;0.2507823469527958;0.18633227558894602;0.03483189471058614;132.0;0.252667365882788;0.19826538458917875;0.03942965415769361;140.0;0.2538001740891922;0.19830419482700126;0.03944090614580373;130.0;0.25654024273229464;0.20920254879676153;0.043882775399860685;131.0;0.2602189321777014;0.22507506507423214;0.05079613987258798;133.0;0.26640409888538574;0.2029181444510126;0.041282376952353046;131.0;0.26221964207034376;0.17958406443972738;0.0323443431894293;129.0;0.24744197496858578;0.11189048837598585;0.012556108168566147;155.0;0.20864691798583027;0.0968882991547083;0.009411901996324308;159.0;0.1881125403626119;0.08211515216843966;0.006757484844758345;159.0;0.17181652663055552;0.07643621537053787;0.0058569793357927625;159.0;0.16732571901655444;0.07448092776081111;0.005560614518984883;164.0;0.1660703090048819;0.07387480981313321;0.005470882468047689;161.0;0.16738302976657307;0.07413432094446797;0.005505312596302195;160.0;0.16796902533253846;0.08735025667248485;0.0076468042825122845;175.0;0.17776827555582453;0.07527754014948701;0.005672077487204327;155.0;0.16715437988577256;0.07505191938752265;0.005641149906413663;155.0;0.16740298717693444;0.0738326375918069;0.0054644122784662;152.0;0.16722093729277623;0.07699318178519243;0.005945960416880587;154.0;0.16842240493956975;0.08180238910471047;0.006711930459215123;154.0;0.16995365344830124;0.09077883976117955;0.008265864640044095;162.0;0.18009849431921718;0.09324100605215757;0.008720216071515859;157.0;0.18590910137349406;0.07372687343175564;0.005447119160005555;158.0;0.1675231084608593
0.15553707640091385;0.02426125332803751;140.0;0.23305054152898627;12.0;0.14898522431142355;0.022262470107345517;153.0;0.22386690872805812;0.14707614642851533;0.021695206148934488;145.0;0.2168729063939077;0.14871049326055163;0.022181048099603706;148.0;0.21788508404853008;0.1504279102611296;0.022699171839725585;151.0;0.22013324043216345;0.1523438717527724;0.023279196166005794;149.0;0.2222730289282375;0.1543902980976803;0.023906308075642924;149.0;0.2256394691379441;0.007908884907758276;6.275425067587497e-05;159.0;0.06302397782875922;0.16179938347711045;0.026257153040359207;150.0;0.2334855360984937;0.16670737577221864;0.027871874377433423;154.0;0.23621852062916765;0.17816578790074225;0.03184471467850825;149.0;0.23676094184439614;0.18487349818477963;0.034273218354495406;150.0;0.23792560478637118;0.19543010708136233;0.038306904966774635;150.0;0.23712801551536775;0.20249939682310777;0.04112961052413253;148.0;0.24020290100396388;0.18345508637885086;0.03375278521808954;152.0;0.24880644844791378;0.15734985634348114;0.024835284241055078;151.0;0.22915179852155484;0.08561866561623661;0.007352864219612291;145.0;0.18191539206708265;0.07439679212756341;0.005551721112654352;156.0;0.16865684882104673;0.06569468071006894;0.004328416975943262;155.0;0.15956502178053392;0.06289899651621263;0.003967971432987153;158.0;0.15768241115370984;0.06247079028157317;0.003914686300897555;164.0;0.15774888376325852;0.0631525987408524;0.0040008536480222;161.0;0.15942112186625138;0.06380542711806607;0.004084186368032883;159.0;0.15989398571050065;0.07352238147756987;0.005422681131108897;173.0;0.16907476938389224;0.06505281445738523;0.00424354330346969;164.0;0.1616734277177598;0.06451682531887416;0.004174937850635261;162.0;0.16149303354515032;0.06554538086827928;0.0043096828601384635;160.0;0.16251476337290108;0.06910783755691927;0.004791104403263984;164.0;0.16414611445025162;0.07387034654517494;0.005474135307100318;155.0;0.16685288382740857;0.08074555089958185;0.00654047154306525;160.0;0.17465983231197596;0.08502645838666506;0.0072524851827018245;152.0;0.18164747778616377;0.063535228479592;0.004047655298038459;156.0;0.16241748732872885
0.13510717951310383;0.018297685874937856;150.0;0.2169301361811196;12.0;0.1316517164986534;0.01737047612436354;163.0;0.2140513551566841;0.13138363500595088;0.017294620006445573;159.0;0.21181929748726888;0.1345469874818498;0.018132322758551114;161.0;0.21440220182682634;0.13695374283058737;0.01878667659229198;163.0;0.21649542035216118;0.1393954129803403;0.019463550964984828;163.0;0.21816751878416488;0.14124229928571247;0.019984566125220996;166.0;0.22006476320465856;0.008257844978474578;6.841298919407806e-05;157.0;0.061471500869026245;0.14405890803026944;0.020795844201057255;171.0;0.22219830922213468;0.14944962801755804;0.022381011500830425;172.0;0.22460688522587724;0.16044329462582374;0.025779346055037945;167.0;0.22575818661296035;0.16500182008058187;0.027276140916454476;171.0;0.22659840852992935;0.17426728315596732;0.030438035670904064;168.0;0.2248483188443559;0.18089807476881503;0.032794098994258135;167.0;0.22648477011478915;0.16822960916284171;0.02834379194161594;172.0;0.23774008429505478;0.14022763025982285;0.019702089098211775;171.0;0.2191449155556233;0.07745257580195682;0.006015937884591212;151.0;0.17340002661599313;0.06642060151207016;0.0044246967933040384;157.0;0.16119052490217634;0.06066351590036871;0.0036915385054937123;165.0;0.1541169608934524;0.05997658287404586;0.0036082016532309412;164.0;0.15380443301739055;0.060779894830318676;0.0037057013748208077;167.0;0.15444008968378314;0.062273242093660745;0.003890476038698874;168.0;0.15611044277516647;0.06396837249630037;0.004104207408535181;163.0;0.15754870383075958;0.07121482006096759;0.00508110969922505;173.0;0.1690531523780594;0.06641881105805776;0.004424793424350809;172.0;0.16212696182978745;0.06621626529554665;0.00439752363666446;167.0;0.16299991612404205;0.0695497186243089;0.00485227626713177;162.0;0.16559364101464438;0.07385829670543258;0.005471581796472618;165.0;0.16877044666658775;0.08065182907869134;0.006525200869289736;154.0;0.17230974928063866;0.08697650842492304;0.007587983702419814;156.0;0.18218874207750851;0.08829248526836322;0.007818108662675285;157.0;0.18875218730998425;0.0648482062179083;0.0042187681966542505;163.0;0.16057707497297793
0.1106804180754953;0.012288107694212529;155.0;0.2100301339025019;12.0;0.10937938508684666;0.011996790488051782;156.0;0.2088138520870759;0.10926984407795445;0.011967772803739223;157.0;0.2051515633286115;0.1115282798776852;0.012467499804401396;155.0;0.20579831165702112;0.11346298005696866;0.012903766330931932;155.0;0.20777651912087367;0.11569230387764082;0.013418179239940773;152.0;0.20967830077190644;0.11720153669447268;0.013774281346233787;156.0;0.21104879412807886;0.008054701945567072;6.504069653876406e-05;151.0;0.05944687721149861;0.11750386920489474;0.013843725553174221;167.0;0.21051869097564802;0.1198330553025719;0.0144028431568964;168.0;0.21191276791294456;0.12507092598539415;0.01569010398183284;166.0;0.21233452388648252;0.12389871855394737;0.015395082972957263;168.0;0.21278839277877137;0.12774921948620857;0.01636733780732611;168.0;0.2129187328866682;0.13612894054748545;0.01858752158623907;164.0;0.2134364029066721;0.13635972405449762;0.01865336933482268;163.0;0.22347854352783572;0.11538440045023185;0.013349366697045667;165.0;0.20924949767503453;0.07865848438025896;0.006206535734882184;150.0;0.17490601826027335;0.06871122434421602;0.004735447142389766;147.0;0.16527228446627407;0.060715317298414014;0.0036968069831988903;152.0;0.1571790228730335;0.05955373836390399;0.0035568274146130672;150.0;0.15671796981165478;0.05967249096711912;0.003570005496302925;154.0;0.15682999825360738;0.06035464111029181;0.0036505979681601174;153.0;0.15799308209787694;0.060969036105396904;0.0037264513616947683;151.0;0.15890424780235854;0.0709012316810014;0.0050435548814180145;153.0;0.16875483445188888;0.06529413914393366;0.004275255050814946;161.0;0.16246391835171237;0.06441235467381701;0.004160542089184468;159.0;0.16220335457149726;0.06655507520969903;0.004441522995776389;152.0;0.1630345252281374;0.07041529395953013;0.0049713709854404264;148.0;0.16457568933141373;0.07783883405928659;0.006074213123619268;140.0;0.16704618572369204;0.08409395161974687;0.007089795585190849;146.0;0.17724366298988692;0.08158095374512961;0.00667461181087827;148.0;0.18266789916528053;0.06333935487013155;0.004022026820108708;157.0;0.16072642594265701
0.0967681772465697;0.009393489831094896;160.0;0.19457727506920933;12.0;0.0916546198260675;0.008424849984772198;154.0;0.19164895508527693;0.08813780009428901;0.007788402092612464;151.0;0.18759140868217758;0.08860265046850276;0.007868579249165246;148.0;0.1873917195523348;0.08938321050151797;0.008007899105446019;149.0;0.18934103674265526;0.08958102480400167;0.008044067558130521;147.0;0.18986762268031296;0.09037676981156567;0.008188305920450624;147.0;0.19142263335628984;0.00907136976189044;8.253634156655662e-05;142.0;0.06320912400747854;0.09754129214278233;0.009540858986365197;156.0;0.19376126337238764;0.09960477083036748;0.009943773148877849;157.0;0.1948005596350248;0.10404623637718896;0.010843881885738064;161.0;0.19559626759835036;0.10743286124768468;0.011560942649633954;158.0;0.1963455830505374;0.11721363441833911;0.013758047942173328;154.0;0.1992314162614459;0.12790942158381538;0.01637573046106618;156.0;0.19916462692153072;0.1181866478900476;0.013991680656376895;153.0;0.20406669831293153;0.09342021051072667;0.008751302815661279;154.0;0.19050421919467622;0.07192199233757095;0.005186129944828512;155.0;0.17122984511840164;0.06733553610069908;0.004545670491534988;155.0;0.1609601606924788;0.059158151476402326;0.003506350049693897;157.0;0.15232934217987862;0.057838423018790275;0.0033517279430456104;157.0;0.15226137190903094;0.057414968231253645;0.003303793740235354;161.0;0.15224434998763878;0.057464614829251554;0.003308638793736764;157.0;0.1532938386366705;0.05781409862902012;0.0033490235609064363;157.0;0.1539832420082628;0.06540416313966069;0.004289833620422967;152.0;0.16120946572084865;0.0639271661297389;0.0040976198359611105;165.0;0.15725903849022224;0.06293459123040532;0.003971186365832522;163.0;0.15672242757775515;0.06207705871425503;0.003862797407942948;157.0;0.15564046185268926;0.06442728751116036;0.0041620244333897246;152.0;0.15482650865531322;0.07052962237613092;0.004984247905529012;151.0;0.1560871945732066;0.07645336571571393;0.00586033021335147;158.0;0.16561115513100122;0.08042988662292314;0.006481792576150179;157.0;0.1739813587652215;0.05984183008909568;0.003591124925821442;169.0;0.1555893684988549
0.09989384280976349;0.01000619334806325;163.0;0.19265665783787458;12.0;0.09324298921965035;0.008720961512028518;159.0;0.18625439397778254;0.0919187896685939;0.008474343666716063;158.0;0.1841885625557737;0.0926374601534399;0.008607828305473028;155.0;0.18424318658516933;0.09350434697061397;0.008768315367094907;154.0;0.18569020010249102;0.09322063728957769;0.008714920921572698;153.0;0.1856525188133337;0.09368069640339349;0.008802288843478044;152.0;0.1873925762064847;0.009545664700582997;9.121992614451719e-05;146.0;0.06516434014335414;0.09770770320111974;0.009575028373083478;155.0;0.19015054041424237;0.09838271104999181;0.009707047137854209;157.0;0.19085278395221453;0.10240305745845418;0.010511820317420066;162.0;0.19198154709439266;0.104393644393265;0.01092846839294389;160.0;0.1919265444321216;0.11388888146950753;0.01300865569245362;156.0;0.19344079214873308;0.12277613764317924;0.015114525548399422;153.0;0.19278108161009896;0.1100560707844086;0.012146955141264282;156.0;0.1908489587345093;0.09435831637681519;0.008930673616944577;155.0;0.1859718767719842;0.06838802864243851;0.004689060123513249;152.0;0.16751328919396616;0.06737688825638352;0.00454995042494357;149.0;0.15829032630894085;0.058620830336835135;0.0034464752203378405;150.0;0.15067651620496522;0.056491441028151575;0.00320153927454956;152.0;0.14931396910527975;0.05593582229129974;0.003138975639238369;153.0;0.1486864639647553;0.056234999756211546;0.0031728843305026057;151.0;0.14959148441515593;0.057176079298582365;0.003279969329286411;151.0;0.15035952815972062;0.06485385198138882;0.004222497863789901;151.0;0.1611864031613218;0.062287542785475956;0.003892595057573785;156.0;0.1537545750637696;0.061930539985703914;0.003848086991345371;155.0;0.15463204253961835;0.06075651606310829;0.0037035598186473235;155.0;0.1534642904808959;0.06288315220874366;0.0039673411260721814;148.0;0.1538051176458156;0.06938707962161941;0.0048302636490759245;154.0;0.1573596521885977;0.07569169601683678;0.005747165490502398;159.0;0.1672188353093829;0.08203273366419452;0.006750030823923978;154.0;0.1753832707571962;0.05757380749466857;0.0033256774145511126;163.0;0.1507803461155791
0.25375792534449376;0.06447498371397888;151.0;0.2663979388646399;12.0;0.21697869353179636;0.04710149921344239;151.0;0.2414270954277033;0.19952027283636734;0.039774740121023784;153.0;0.2233618940780091;0.20060080731176183;0.04020041102300377;152.0;0.22577367050601618;0.19378150961895854;0.037522688398141435;153.0;0.2192549120368417;0.18483753263566766;0.03412715616101126;152.0;0.21561947478511528;0.17853330878233242;0.03183597792879666;155.0;0.21509251486267064;0.010561952567226186;0.00011180691840698945;164.0;0.06917927287420247;0.17333679842156746;0.030013468301714096;157.0;0.21489823830319305;0.16917930180636664;0.028593311808303292;157.0;0.21595772446902448;0.17590609856628506;0.03093716953224991;152.0;0.2167871145411891;0.1753523240636428;0.030714873615430942;156.0;0.21617622358975608;0.18408593902686554;0.03383728673293491;151.0;0.21710787863534659;0.20905916746478004;0.043690115181058524;138.0;0.22300502649263465;0.22752985518095084;0.05180016785405298;140.0;0.23961077016842505;0.17449407773135758;0.030410857316386108;159.0;0.2120926451737003;0.1749780137261228;0.03070659617256694;151.0;0.23322670392147274;0.16551840172210727;0.02747867505460131;150.0;0.2173128650663686;0.1512799729580146;0.02295392948637542;147.0;0.20461096308288199;0.15414183912799165;0.023835429320690618;141.0;0.20323933073397218;0.15578581283213858;0.02434739291900275;140.0;0.20347374393019232;0.1500459734953844;0.022579653290571565;144.0;0.20778324308821933;0.1487514011982046;0.022192760413138873;142.0;0.20970144263705862;0.1576920202811529;0.02494240282098807;150.0;0.22193917848658926;0.14360541880755234;0.02068235399459424;142.0;0.2064763179727946;0.14145052008608738;0.02006333796925909;144.0;0.2050897546832405;0.14328208509741033;0.020579169931896978;147.0;0.2040365490396589;0.14669215154970836;0.021561617298113664;147.0;0.20174477387950093;0.15829066289693486;0.02509699881046439;151.0;0.20568658325987105;0.16416706338005851;0.026983346911416264;153.0;0.2134018825956327;0.16415385347532135;0.02700067424781698;145.0;0.22305517228789062;0.14639247258445973;0.021492306609898194;143.0;0.20619575087306763
0.2915706264802889;0.0852693908150644;155.0;0.307007852082177;12.0;0.26036919160592975;0.06797825785379638;158.0;0.2837460150356381;0.23899412315663682;0.05727997716930656;162.0;0.2656718877596466;0.2411213173556322;0.05831145524764752;161.0;0.27316355057752006;0.23022992587002017;0.05315990714301987;163.0;0.26298994710026574;0.2197678697280445;0.04844235868499676;160.0;0.25676342584815165;0.21402175558123204;0.04594596895183903;164.0;0.2545897696661483;0.011114211043509976;0.0001239076424566814;162.0;0.06821901691016481;0.20849383334214766;0.04360876265739797;166.0;0.2524451899540151;0.2084565381022679;0.04357986436513124;169.0;0.25536040665939647;0.2188558849720792;0.04804844850325859;158.0;0.2569591944134033;0.22284447715837938;0.04982004537461651;165.0;0.2561546043363308;0.23683627947147845;0.05627459365235353;158.0;0.2599189967256763;0.2643347411973705;0.07010116144010328;147.0;0.2707357727188058;0.2788577617347576;0.0780151252007132;151.0;0.29382242490386756;0.2068695013516377;0.0429322918126687;167.0;0.24965189494648582;0.18554519236716469;0.03451725446063494;151.0;0.25281957001801014;0.1739196474289631;0.03032487878377648;155.0;0.2323958844205395;0.16333486442652315;0.026752709147470286;150.0;0.22115284046127812;0.1668717570157459;0.027928437744411026;147.0;0.2212743160537695;0.16920879491456664;0.02871918220568143;146.0;0.2232059159249681;0.16504533221354006;0.02732395967932073;151.0;0.22742533815953653;0.16361930116656315;0.026857949742036993;143.0;0.22920420889580048;0.16678132190308753;0.02788460481689426;145.0;0.23581736395717223;0.15735205155668194;0.024837774561590188;147.0;0.22683547211952323;0.15712079458500233;0.02476701143007099;143.0;0.22682868500546213;0.161236906460668;0.026078271499925303;146.0;0.22663091819997094;0.1661461547898411;0.027692301777153126;153.0;0.22454570878334099;0.18312866945494727;0.03364297544626501;154.0;0.22810911175852583;0.19226130092046642;0.037084327178930156;152.0;0.23288576206980677;0.1900969195266486;0.03625463636883684;151.0;0.23988339389771007;0.1595074831551067;0.025524384017435536;143.0;0.2261684105156876
0.20159333629192744;0.040691563872706886;164.0;0.27071943405587373;12.0;0.19878824685673127;0.039597099522330356;168.0;0.2606940819363029;0.18625665112356646;0.03472753089221566;170.0;0.2495113964707275;0.1881338235435337;0.035420694547128394;166.0;0.25348663373693736;0.18235161955406523;0.033288137618312924;170.0;0.24916423810215135;0.17857906958187947;0.03191964361189155;163.0;0.24650240449806005;0.17816201875242618;0.03177002456232522;165.0;0.2455772523951389;0.009734395552355266;9.50588216748646e-05;153.0;0.06168632562182972;0.17731401112655537;0.03148189551518014;166.0;0.2441829964058863;0.9754332796246377;0.9516650778253671;164.0;0.32788430424029763;1.2910562117824518;1.6702356874326603;161.0;0.3618296047152285;0.1980234798095475;0.03929357904096216;170.0;0.2499529550187872;0.21046986478051868;0.044393429951085625;166.0;0.2520903931773801;0.22307324428851086;0.04989199041354919;151.0;0.25775854981864765;0.21125749938814217;0.04472329201113983;163.0;0.27086739126686166;0.17444404415008258;0.030464828585374262;167.0;0.24133117602479115;0.12204592691047303;0.014919128425692086;159.0;0.22133895028611572;0.10790201734994279;0.011658162771423015;151.0;0.2008178613370162;0.0975251483730309;0.009527249890088577;147.0;0.18803396367792422;0.0962004541185927;0.009276461164796346;152.0;0.1850657116335393;0.09748422511702404;0.00952625751520426;153.0;0.1859735214734464;0.10006652028995353;0.010031823586211377;152.0;0.18854021326580836;0.10048590666450116;0.010112298579352317;145.0;0.1885739822029785;0.10652474673293756;0.011379326489372062;143.0;0.19244067565898312;0.1018447284164923;0.010395887673744391;161.0;0.1892831180574785;0.10246874039122428;0.010516387833022701;155.0;0.19082023884393737;0.10567054230518097;0.011183864955746517;152.0;0.19143211630467047;0.11033026704956157;0.012186464720459741;151.0;0.1917140156502839;0.12758309084610367;0.016281022743578788;152.0;0.19640044808582022;0.14184790051597454;0.020126592271787733;148.0;0.2048454239950092;0.14009889876477627;0.019639002095565107;149.0;0.20630638942485363;0.10052084844277068;0.010122912653983365;153.0;0.18752117713936828
0.15374114029837718;0.02367696361146358;160.0;0.23379390286011287;12.0;0.15223073392795755;0.02321085239306431;167.0;0.22515425919099;0.14646714438835431;0.02148249051011652;168.0;0.21324837243351377;0.14784456357166903;0.021888950130411585;164.0;0.21226349522306748;0.14967027505517932;0.022437402470259462;169.0;0.21370017115581286;0.15129982429145702;0.022938107843109262;167.0;0.21564709573473673;0.1524019718151739;0.023273637874869982;166.0;0.21729686912965368;0.009579556741261912;9.206106302285119e-05;148.0;0.06415771858590373;0.15301977154616225;0.02347568298107658;169.0;0.21750252198574868;1.1025309837602226;1.218669514853694;168.0;0.32674034785685674;1.4519944118177597;2.1137857632088597;164.0;0.3566228835074688;0.165082626869145;0.027321710904415517;170.0;0.2238409877994133;0.1747165220202023;0.030607913593542375;169.0;0.22729152883466933;0.18816527161495436;0.03551166059544797;163.0;0.2358554489900099;0.1771205897717876;0.03145794896928424;179.0;0.2425429474233088;0.15353804351442757;0.023637867346177375;170.0;0.21448834419769325;0.1263372466319385;0.01601087255383437;158.0;0.21208555866926967;0.1119505694926868;0.012572143862846094;151.0;0.1917462642415122;0.099444534448144;0.009919665506356297;154.0;0.17549135340216399;0.09659704269145787;0.009359428428342528;155.0;0.17141173842303442;0.09621331007330747;0.009286242563151952;156.0;0.17165190743233347;0.09660839855708485;0.009363575943518675;158.0;0.1748022546447605;0.0975014541709842;0.009537186671297796;155.0;0.17590156153951453;0.10374490845564714;0.010796669831234907;147.0;0.17935885863861828;0.10355629869327773;0.010756588321381409;154.0;0.17752249348521024;0.10130060802981462;0.010294407082957258;158.0;0.1771385973911692;0.10180025576300017;0.0103969101695218;157.0;0.17686533092943735;0.10532739524170896;0.011129691898412092;157.0;0.17696592615703924;0.11524907288956593;0.013325726210644203;157.0;0.18191638307434294;0.12566754708674877;0.015843005458351173;154.0;0.19088600888231347;0.12591034737014148;0.01590403006869989;151.0;0.1880812348632508;0.10287624210069914;0.01061810760622274;157.0;0.17665829055420096
0.12267183291739091;0.015096033931069144;153.0;0.21593627743050614;12.0;0.11631282992953156;0.013570880244525135;149.0;0.20035911678792315;0.11274271716124175;0.012742082387088752;154.0;0.19047000403109923;0.1146914222251201;0.013181426115552177;151.0;0.1901141890807958;0.11627898688269421;0.01354606673565399;152.0;0.19091004159214742;0.11748275770346231;0.013829706081369941;153.0;0.19329774551219792;0.11907938329269865;0.01421053129475319;155.0;0.19684501424941736;0.009655298045582007;9.349955193174156e-05;143.0;0.06803014204151711;0.12327210790886098;0.015229774378178455;162.0;0.20235990647905905;0.5667249139977542;0.31915927205745914;161.0;0.2329503553512857;0.7198561081937396;0.5168914523158034;163.0;0.22736402793176647;0.1315148079426187;0.017320983469239954;163.0;0.20792402068227286;0.14000277553670282;0.019629530130546965;162.0;0.2115107797526237;0.15312432184164126;0.023483173674351536;164.0;0.22002602592994308;0.15216359510075447;0.02318984847315236;178.0;0.22644401029920908;0.12088244911057595;0.01464741749727229;162.0;0.19904979468356465;0.11283142369874083;0.012772592191459048;148.0;0.19573071768573963;0.10260649322992366;0.010562585710832057;145.0;0.1819319414617897;0.09605317523323499;0.009254491640969552;150.0;0.17088184963081862;0.0940493912082829;0.008872856403781765;160.0;0.16892048138148466;0.09338924277733159;0.008748539994419812;164.0;0.1692126899028533;0.09262660990646344;0.008604730308829028;169.0;0.1698974257702306;0.092900162570864;0.008657137868569734;168.0;0.17228236530628083;0.09547278949249896;0.009141759295503007;141.0;0.17782726701656246;0.09794776945907946;0.009620902624016804;148.0;0.1761299791826016;0.09793919776253183;0.009619645333663022;152.0;0.17653195091184246;0.09850201487754055;0.009731260751099114;154.0;0.17640666803656316;0.10075878823782561;0.010182893489055798;153.0;0.17738540419445922;0.10758385230313464;0.01160677278275805;152.0;0.182169015855635;0.1127783473706056;0.012754280314196518;151.0;0.18749084959588264;0.11484959769232791;0.013227642870734954;149.0;0.18709029560112447;0.09634219564824942;0.009310580118975913;165.0;0.1744163152503685
0.11411195423642544;0.013038652161933097;151.0;0.20251017166329513;12.0;0.10642344225235555;0.011335609474566521;142.0;0.1870634422133556;0.10638991936564399;0.011326205580649522;141.0;0.17972652464160602;0.10946923364783485;0.011987804491831469;140.0;0.1800057344912315;0.11273078593904841;0.012718132389534977;138.0;0.18127413604656964;0.1136667529416161;0.012933010683944854;137.0;0.18347874457017854;0.11175604584523244;0.012507134803203755;142.0;0.1858457782869936;0.008998067730798661;8.120089881181677e-05;147.0;0.06618184836236893;0.11589302520542638;0.013452053236874826;144.0;0.1926126996971054;0.22240477012935073;0.04873195557698889;144.0;0.19484215412421163;0.27530186718430083;0.07484949573727089;159.0;0.19486073964924092;0.12505379514941062;0.015653969160588848;146.0;0.19632702822077658;0.13419102236453814;0.018018732941063972;140.0;0.19759332701438462;0.14250716493041193;0.02031617544649014;136.0;0.19942342349102424;0.1345469816738566;0.01811096120845221;142.0;0.20401276207616825;0.11150351840023898;0.012456982079537108;143.0;0.19028432673515303;0.0931622558440002;0.008696317023064988;165.0;0.18590938053996053;0.08402068855364103;0.007072423576794497;155.0;0.1729948065329908;0.07533101661153886;0.005684163074632085;164.0;0.16208865067001793;0.07365637255110828;0.005434653981596339;170.0;0.16038986473058484;0.07350313649992583;0.005413698350891239;174.0;0.16082405486523746;0.07350869812196138;0.005416087912018551;175.0;0.1613707023542676;0.07402994103038234;0.005491630159916225;173.0;0.16308517490186827;0.07667739370695872;0.005892943221194355;151.0;0.17185451086881265;0.07913505320343057;0.006267691510134909;162.0;0.1667992918843853;0.0785657660676007;0.006182705286417017;159.0;0.16667368544632047;0.0767663003210753;0.0059027663154070965;162.0;0.16531160417287483;0.0752812613843738;0.0056775403454520194;158.0;0.1645381954636454;0.07923909860258585;0.00629337681125395;164.0;0.1675621538575144;0.08582928860030302;0.007381125212261608;165.0;0.17487629551045764;0.09195892846659101;0.008471077890063202;164.0;0.18251221423835548;0.07743461003263957;0.0060086484071271125;172.0;0.16495864683454853
0.11166389861380427;0.01250484514843386;153.0;0.18641586898133125;12.0;0.1137047488079425;0.012962617087616382;152.0;0.18179163436059173;0.11536848093202577;0.013350535259250267;145.0;0.1780269547912257;0.1176991952248019;0.013896695226498028;144.0;0.17952320485386242;0.1207997496728225;0.014639446417664743;143.0;0.18224665063106227;0.12169164890887181;0.014855844257134335;142.0;0.18419226315789042;0.11880538927592534;0.014157781584247063;148.0;0.18543220179436457;0.008407597386377606;7.091417337303639e-05;157.0;0.06396459689418718;0.12227333093074577;0.014997062903434747;146.0;0.18970488287788348;0.13254493201909986;0.017568598799784802;135.0;0.19120988010109213;0.15797408860664425;0.024990301186165544;147.0;0.19524998518923656;0.13876708885737382;0.019309205572879743;146.0;0.1937201493482997;0.15199441009233494;0.023159175148908986;144.0;0.1949467246007505;0.16226339055695124;0.026379047465805855;149.0;0.19807117000406363;0.14767625653176103;0.02186094220643045;144.0;0.19919199907291815;0.11633667123273908;0.013573644287708828;145.0;0.18692414412206654;0.07147906981139664;0.005125515227286764;169.0;0.16843279366899644;0.06748432675970618;0.004568625503881282;159.0;0.16046999090548367;0.0618321799138388;0.003835523597562111;166.0;0.15180871685619296;0.06133213353761744;0.0037735767904173725;166.0;0.15096640847550233;0.0618627143022519;0.0038389245789845878;164.0;0.15168577545972314;0.0631258032895269;0.003997690471713359;163.0;0.1529866453565422;0.0637987933023945;0.004083606648544597;156.0;0.15381858922540786;0.06032852964189502;0.003651428007425573;157.0;0.15897889921859829;0.07115093881096522;0.005078767269204325;147.0;0.157058662490414;0.06874671883345074;0.004741549888122877;153.0;0.1551355133748117;0.06751981691866968;0.004573279508564406;158.0;0.15330979831004635;0.06823712893415071;0.004670919384876012;155.0;0.1524735063474084;0.07299570957787117;0.0053455286234024004;162.0;0.15424278615045744;0.08117982845492719;0.006610701294791469;158.0;0.16314269288910427;0.08437312183365199;0.007140053209557933;156.0;0.16932784758044067;0.06722717527116392;0.004534149366700622;153.0;0.15462985399774065
0.10504322831833206;0.011069922160422671;143.0;0.18496215069013006;12.0;0.10272817329018902;0.010587243974893166;145.0;0.1804537850136136;0.09959878634582782;0.009951661084320133;144.0;0.17670624078046684;0.09873859420080067;0.009780863174194417;147.0;0.17623153007680817;0.09935912843079839;0.009903309231345095;151.0;0.17765115168511766;0.09860251407939709;0.00975325213850979;147.0;0.1788277207908825;0.09916101163750832;0.009862575557059647;148.0;0.1808775304501409;0.008936082845307221;8.000973722511379e-05;160.0;0.06583086184504727;0.10672632738788117;0.011424065501003135;144.0;0.18405036336949485;0.12088767748634352;0.014632007975427333;137.0;0.18819980597540212;0.14284442693839547;0.0204547855668708;141.0;0.19101840386507635;0.1215042130805223;0.014810558263797978;146.0;0.1885653754686842;0.1328624780927074;0.017708382239955453;143.0;0.18993691209662744;0.14430469962382547;0.020889614951800736;148.0;0.1948158245765092;0.13462361003661424;0.01817778694159483;144.0;0.20144252646138863;0.0992693486418052;0.009883663308762924;149.0;0.18023852019905467;0.0710781038507703;0.00506296088606119;175.0;0.16906378155441934;0.06294645924699668;0.003966636840541657;165.0;0.16050301129187383;0.058440274914534636;0.0034170591791906255;162.0;0.1547974528564295;0.057683529604738326;0.0033275896540957053;164.0;0.15449785569357316;0.05798844830583727;0.003365634934311188;162.0;0.15429152948071603;0.05901348275088826;0.0034839281804601384;156.0;0.15568165509522056;0.05967630135134823;0.0035593421178993557;149.0;0.15636861113676173;0.0637391468299463;0.004067030834984823;156.0;0.1597814717154696;0.06634330996739703;0.004406693553112001;146.0;0.15803204430259657;0.06460665842986855;0.004178921595206141;154.0;0.15689372534507104;0.06450687665591612;0.004166684560775992;160.0;0.15563858495797123;0.06791211388993144;0.00461804186903217;153.0;0.15638558528416885;0.07337113477389041;0.005390446227897681;150.0;0.15881213501821898;0.08044652757425201;0.006485318530892055;145.0;0.1676545825442508;0.08108224181704733;0.006585689316035047;149.0;0.17131770941020794;0.06088840966899082;0.0037059217035383405;150.0;0.15499378557678847
0.08719300476785516;0.007621376986324246;150.0;0.17618925938134097;12.0;0.07972725759959907;0.006369830548352147;151.0;0.16636143438275897;0.07453431833018524;0.0055673439386451475;155.0;0.16203512017064803;0.0732317094754941;0.005376926056945272;154.0;0.1608674109424376;0.07351469717636175;0.005418497795603987;158.0;0.16105515562542805;0.07401958923482882;0.005494344579702488;157.0;0.16277250149347988;0.07676525738884823;0.005908534684185079;150.0;0.16593482378946348;0.009016230122585166;8.155790834494611e-05;156.0;0.06341118744218689;0.08519116752047648;0.007278861678818355;153.0;0.170161164650165;0.09217497492795576;0.008523819612492566;160.0;0.1731130759597956;0.09718044869180809;0.00946919850374079;167.0;0.1760806589064685;0.09240254641368914;0.008565249609854414;155.0;0.17634471844304517;0.10082988770968158;0.010199302379491673;146.0;0.17993484120626785;0.11436142825706401;0.013120801201654611;145.0;0.18879708544606616;0.11103546721212366;0.012365902749662755;148.0;0.19823268183337778;0.07897367140877419;0.006253647125820693;153.0;0.1659399493749577;0.08035106579230006;0.006477375169827957;180.0;0.18081445331535434;0.06395439110927983;0.004103565430503681;169.0;0.16519347437817747;0.05606983903375642;0.0031541310229766593;173.0;0.1557018507005346;0.055051551562850395;0.00304051856562097;167.0;0.15482252415679953;0.05536097881815081;0.003074915617775277;168.0;0.15501561258650767;0.05641492838318954;0.003193076712925941;167.0;0.15619054279508165;0.05763961839521356;0.003333251028928947;162.0;0.15737194509877478;0.06494821267383989;0.004232096117256051;159.0;0.16555818088901125;0.06134933199244531;0.0037759025492836292;165.0;0.1596102791539817;0.06054531826745276;0.0036777635344713263;164.0;0.15958115960298216;0.05963739630402754;0.0035681864054568583;173.0;0.15932436682679554;0.06122635517304557;0.0037607657876651763;167.0;0.15927450022778897;0.06458642724004329;0.004184804046762538;162.0;0.1605075665481134;0.07072511139853946;0.00501774850034318;162.0;0.1665519545729409;0.07106565893083185;0.0050665620718444;170.0;0.16955736949596648;0.05660716468531438;0.003214904447393627;164.0;0.15643963946124123
0.08273651393720081;0.006860977602954578;158.0;0.1778694427677709;12.0;0.07807741759178372;0.006104976617779705;158.0;0.1678428205688076;0.07242155517886383;0.005249470848371083;161.0;0.16115600248004522;0.07111013546054688;0.005059815905640518;153.0;0.1586105932800811;0.07098256216552544;0.0050415970233210735;154.0;0.15824109056804095;0.07104762485593696;0.005052215653218409;155.0;0.1583413363730475;0.07229364662933652;0.005234046697125183;154.0;0.1603307563177375;0.008576659293056921;7.367647324980544e-05;154.0;0.05894122186110553;0.07932424593247282;0.006303669917181722;156.0;0.165585282327084;0.07956789349280104;0.006332173655600986;153.0;0.16781517348548586;0.08223410492366709;0.006772436184757413;164.0;0.17070588954703103;0.08433188814379552;0.007125198378074078;158.0;0.16997890963523823;0.09039145413939283;0.008183722039012466;154.0;0.17254235238208585;0.10047490647685703;0.01010962996749289;149.0;0.17978730698575615;0.09697829613176771;0.009427515005313874;157.0;0.1862842653738879;0.07601717685800093;0.005791241650331613;153.0;0.16296036797342886;0.08390394292517048;0.007061038959039327;165.0;0.18480279650286938;0.06834891897796477;0.004685676156508816;153.0;0.16997904722501125;0.05899064438457698;0.003489704386741128;155.0;0.15675274273401138;0.059487973563090636;0.00354903971778891;155.0;0.15735129473789392;0.06036006816769365;0.0036540963266416034;155.0;0.1596623772568298;0.061622452830950705;0.00380890459719506;160.0;0.16174311234066108;0.06290445481239164;0.0039685521337180715;158.0;0.16389292605073436;0.05888519953749009;0.003473116924438342;160.0;0.1642956871815449;0.0633077331314364;0.004020171728020552;165.0;0.16457676678683983;0.0633401683599126;0.004024979274829983;164.0;0.16461153311892995;0.06321439844984;0.004008972914725227;170.0;0.1651552573747811;0.06410134246224934;0.004122192551806863;172.0;0.1651899764271049;0.06941347329464294;0.00483386214722283;173.0;0.16822647105366842;0.07996082258505098;0.0064151099911876714;170.0;0.17817611596397895;0.084610358836658;0.007181875929061571;164.0;0.18198350924720144;0.06036083408686211;0.0036531645641380405;164.0;0.16180082745064148
0.06685468735541746;0.00448132986569367;154.0;0.14449570220940103;12.0;0.0629704635155691;0.003972778019930294;148.0;0.1394707996864152;0.05893996182771391;0.003477482865621958;161.0;0.13464193669964264;0.05808532880400959;0.0033787085104534887;158.0;0.13319533899537278;0.057910264785258354;0.0033584166178388295;159.0;0.1331764187167534;0.058193768775969226;0.0033929342556675234;143.0;0.13219086094426993;0.05937222405953031;0.0035328365712740885;147.0;0.13291876716273016;0.00955141271589652;9.150858682472558e-05;152.0;0.06549185826482748;0.0657974004983287;0.0043408128156156404;147.0;0.13542080247208668;0.06479185667119317;0.004207339738831666;135.0;0.13763617449675597;0.06488262055285689;0.004218128708476825;152.0;0.1373282238493057;0.0670889831673017;0.00451474137843473;153.0;0.13354584283604157;0.07085049655605562;0.0050354113152806575;151.0;0.134226290986759;0.07663711932625915;0.005892262173021146;149.0;0.13779434049388894;0.07502289340670021;0.0056465363564172765;158.0;0.14070108298983514;0.06374333478528835;0.004074458478454426;149.0;0.134356451873555;0.12842885916572067;0.016544984236317867;148.0;0.2280742751950651;0.1242078961875039;0.015475646546422044;143.0;0.214732272160331;0.11854414849690788;0.014096620848909615;142.0;0.20107762553532632;0.11482254115182622;0.013225041321199766;151.0;0.19916771650626738;0.11310253359949766;0.012830423919478688;148.0;0.19974138738653835;0.11185111953850661;0.01255056912422906;150.0;0.2007466075807505;0.11128838408428056;0.012424239261536995;151.0;0.2018010454735409;0.108171583008224;0.011736538384327954;160.0;0.20758759803156893;0.11431149706390105;0.013109638505131494;158.0;0.20128945164300266;0.11229610065046039;0.012650719455075073;158.0;0.20167833814115205;0.11104858672134078;0.012370694590168404;159.0;0.20217291471763216;0.11055879859066237;0.012260879428880721;160.0;0.20250457711897216;0.11460999981671141;0.013175282673605992;164.0;0.2060298088229417;0.12343317747471354;0.015285110278133635;162.0;0.2160230090029965;0.12530413850187927;0.01575027864488623;157.0;0.21852062050270413;0.11044976231845477;0.012238270752688813;160.0;0.19830094952524968
0.27637346318278233;0.07657483890371695;154.0;0.23448829044824546;12.0;0.2271849511588761;0.051708736431204425;147.0;0.20650623695924014;0.1822601900612251;0.033269327872963377;164.0;0.17673350433147356;0.1723308383890185;0.02974027121962566;159.0;0.17639844701022803;0.16761552751819767;0.028135358331832293;161.0;0.17423859760339497;0.16417681841678322;0.02699962193085049;145.0;0.17333965182166486;0.16137241681408662;0.026085620214772173;146.0;0.17372464537267804;0.010197082670834714;0.00010429079376133785;150.0;0.0690667502432441;0.1614908117421159;0.026130981899252805;151.0;0.1732386443851193;0.1584155694277832;0.025161364422801168;135.0;0.17476855547572157;0.1562852889540598;0.024481669770117915;145.0;0.1723469609110326;0.16637292290299757;0.02774365861745278;153.0;0.17350438036835625;0.17157913303469127;0.02951774531688196;151.0;0.17653102414528848;0.1920386260396528;0.03697713175689093;148.0;0.1874207932942882;0.2094783270608286;0.04397024352754768;154.0;0.2086511198622642;0.15741988500979812;0.0248271088182003;151.0;0.1709657541689071;0.14693098760567994;0.021637133419039296;147.0;0.2442636424707814;0.14784258835627645;0.02190373883877254;147.0;0.232710335043121;0.14064888678879411;0.01983428413783438;151.0;0.21966257562307118;0.13596959797687344;0.018542213696163056;156.0;0.21613981847736602;0.1347967804967985;0.018226727416549404;153.0;0.21547094011466922;0.13434409160837196;0.01810308259303974;156.0;0.2162183611197557;0.13422689495719217;0.01807334689170031;156.0;0.21697128568203952;0.12943604356879676;0.01679044924256263;152.0;0.22427198131924675;0.14140992034141872;0.020060970617292985;158.0;0.22074701308833758;0.13974567100009377;0.019592310357771536;157.0;0.22175616606149418;0.13956337898175553;0.019539562692732573;155.0;0.22271613525686618;0.14085442389498556;0.019902092830686363;151.0;0.22395824779307102;0.15148861339349134;0.023018295000025484;149.0;0.2267571295194604;0.16901204830943664;0.02864831296442864;147.0;0.23811733616957734;0.15918210482390197;0.02541228651609968;147.0;0.23643336515301838;0.13493589746769902;0.01826698122353901;159.0;0.21660150339659776
0.43970056866844126;0.19395801729020593;155.0;0.34755129714072525;12.0;0.3882856522210749;0.1512515513734104;156.0;0.31362770169371273;0.3124875761805259;0.09796024917013266;158.0;0.2748959319198327;0.2918872251373869;0.08547145974410167;149.0;0.2702567411737202;0.27770796514531765;0.07736411889548192;153.0;0.2650353315735556;0.27150284968116595;0.07394442636540863;152.0;0.2639902016951921;0.27005986126260073;0.0731579326606122;148.0;0.26584661756468425;0.009738231170487478;9.514298903434995e-05;153.0;0.06332137826728305;0.2726719130529049;0.07457257202904073;147.0;0.26449191085520624;0.27887744619856386;0.0780129776575735;143.0;0.26695355289068445;0.9968262696674463;0.9925265628996586;148.0;0.34662936252874166;0.28915910578746656;0.08387551310818792;148.0;0.2664518015640085;0.31162251338921604;0.09742378914015165;149.0;0.27230216690264347;0.3615318587996728;0.1311242901633806;142.0;0.2936240225463445;0.3651630842387841;0.13376932885658901;144.0;0.3082727534112746;0.26462280014556006;0.07023291213638053;148.0;0.2612638743636093;0.11379302929901071;0.012991085857374636;157.0;0.20671530458073917;0.11443363984911809;0.013137497649580238;158.0;0.19716763091858086;0.10356918452440576;0.010761476060053515;156.0;0.18691573903408967;0.10095102387793532;0.010223769010281356;152.0;0.18554238044093183;0.10166368548757597;0.010368319174111176;150.0;0.18618173857093986;0.10332407176415015;0.010710144505431828;147.0;0.18830111261327498;0.10423870062859955;0.010900938856634136;144.0;0.19020909705445888;0.09949849422769302;0.009932187363477797;156.0;0.1913337592695592;0.11521865118974574;0.013318546920415964;146.0;0.19976955955622805;0.1159856364440347;0.013496571724146885;143.0;0.20146213985423264;0.1182882343329838;0.014037276335962088;142.0;0.20253926200760028;0.12327739384150914;0.015245227055269596;143.0;0.20398551050670644;0.13755120880966995;0.0189810050285342;154.0;0.20744512043919808;0.15810429650192312;0.025073456779399133;153.0;0.2216592777456957;0.14713331027646123;0.02171450423631342;147.0;0.22373904061371547;0.10675048920353195;0.01143218244393992;141.0;0.1946780834050696
0.36969170223758313;0.13701627522932588;160.0;0.32132822333224303;12.0;0.34724858098860567;0.12083629297997227;160.0;0.30396582023703683;0.2893779856024863;0.08388489790850617;155.0;0.27789181889501213;0.27264480835207977;0.07444513109454615;151.0;0.27294155005056414;0.26064845107531587;0.06806384068704756;155.0;0.2688252075566765;0.2579250861223122;0.06663378768305529;152.0;0.2686475770164186;0.2603146675997641;0.06786088065508605;151.0;0.27114775237474703;0.009969980864237574;9.972329439192732e-05;155.0;0.06338141395565686;0.26916574069270416;0.07258621282149971;148.0;0.27341092564531116;0.2787975611468653;0.07793912959248689;138.0;0.27515391788942667;1.5386398378575248;2.374952642239441;157.0;0.3948992620889897;0.2904055607786438;0.0845094034187048;144.0;0.2782202891505255;0.3156081443052847;0.09985794872570974;149.0;0.2843952008350619;0.36080012666526406;0.1305613754658011;153.0;0.3034054315554399;0.3516234168296489;0.12393191980934436;150.0;0.3047089575831884;0.25895076730073563;0.06716418199233425;153.0;0.2695198624289264;0.08867715920376604;0.007874261305928958;156.0;0.19366585577426276;0.08396135664934776;0.007056094384004386;153.0;0.17771804459683432;0.07703021843879974;0.0059431834867285736;152.0;0.17117216975143407;0.07564406510847106;0.005734938623578581;148.0;0.1707476928800262;0.0757700192768734;0.00575471929402594;150.0;0.17182470662594782;0.07672801619417023;0.00590089022347816;145.0;0.17317596023521958;0.0778099240697296;0.006069753981336823;144.0;0.17519365967166511;0.07357954491513978;0.005424585607025157;159.0;0.1783198492532949;0.08698495998048231;0.0075899078633211445;145.0;0.18260004588652853;0.0888044108644558;0.007911220209272748;143.0;0.18493204221899437;0.09309817749574562;0.008693181915205635;140.0;0.18684963638733618;0.09823169188192259;0.009678570696720502;144.0;0.18794368369565773;0.10403750519284491;0.01085008509670261;158.0;0.1888178443437485;0.11363663879007851;0.012946929215112792;155.0;0.195768151225761;0.11170505632735371;0.01250402916617236;150.0;0.2001965514320368;0.08038640680801579;0.0064810003325530925;140.0;0.1780671723010069
0.20251772117034447;0.04114640005328449;161.0;0.25557264731381363;12.0;0.1975569827948448;0.039155405282593606;153.0;0.24690961007932657;0.1823712590666753;0.03336734366103213;148.0;0.23378029953917787;0.17914356172250623;0.03219690073575639;151.0;0.2319822672520144;0.17866795131943378;0.03202567692560656;149.0;0.23204160607871027;0.17948027400596325;0.0323185711242997;149.0;0.23283871361405595;0.17992706277614945;0.03247989260970034;148.0;0.2336528954722908;0.010634076772496913;0.00011334669259356537;161.0;0.067774023783347;0.18655353538534705;0.03491230432959636;149.0;0.23712126551794988;0.18779492305399922;0.035380182671124145;141.0;0.23695642801900824;1.6521634080847767;2.7350829204009734;153.0;0.40481082163772697;0.201727590699433;0.04082713092602509;135.0;0.24065495232371484;0.21558824981229754;0.0466264805735163;132.0;0.2429250987660624;0.22910740217224956;0.05265933029270237;139.0;0.2517506351904807;0.21849523904047413;0.047896004088467496;135.0;0.2577941312010261;0.1800098735598264;0.03250541483395173;153.0;0.2344281595151455;0.09078461344144713;0.008264730019573879;154.0;0.20084201461097811;0.07896512800588372;0.006254776553801079;146.0;0.17995223316103987;0.07024680063218501;0.004948155335225873;146.0;0.16637160575601123;0.06863364583942046;0.004722986112705903;145.0;0.16334429938859565;0.06879993612235365;0.004746890598225012;146.0;0.16403713817642868;0.06959725987569712;0.0048580166815106384;145.0;0.16540487399514492;0.07076498539572723;0.005023255931796579;148.0;0.16699413034562452;0.06378645229426864;0.0040748346191229814;152.0;0.16948768531764868;0.07578595028936645;0.005762296429711389;151.0;0.1701608401734279;0.07818824104253594;0.006132972122498286;153.0;0.17269007603373288;0.08386038849381376;0.007053560076998852;150.0;0.174280586239516;0.09026767442441355;0.008170706535745281;153.0;0.17680768531695518;0.10019874489808776;0.010065049574606553;154.0;0.1786349676922317;0.1169513392276578;0.013714152231933015;144.0;0.18790957573364886;0.110244792963282;0.012190108661658197;140.0;0.18622578018123648;0.07312435838116906;0.005364355181921353;150.0;0.16792804853336835
0.17869131155376902;0.03203499591150157;162.0;0.24273683083227024;12.0;0.1662790220417298;0.027737879440849354;159.0;0.22599922117743504;0.15317331988175586;0.023537884965838907;159.0;0.21391579037581732;0.15052011831378312;0.022729328030846475;161.0;0.21355933278677652;0.1494692719994396;0.0224110954012239;156.0;0.21446180128876235;0.14748981664853653;0.021824336147613966;154.0;0.21561065794473586;0.145064230947601;0.021112471951688527;151.0;0.21689278442743082;0.009794018033308797;9.62267737945874e-05;154.0;0.06537278831575384;0.1440477679573549;0.020815690409825005;163.0;0.21786455785049755;0.14876254487293825;0.02219955588212776;164.0;0.2183143942702316;2.3841725022682314;5.694137798274908;131.0;0.4838370466015962;0.1526751687357018;0.023385673206061018;154.0;0.21740163491466405;0.160690946036264;0.02590427764461499;145.0;0.2163821884283682;0.16782009267238562;0.028251551965524858;144.0;0.22069179398464708;0.1623058101208708;0.026427136178786902;140.0;0.23314228032140605;0.14413271257028326;0.020839411625230484;159.0;0.2173688706997928;0.08649286016044964;0.007505321899646518;162.0;0.18746137335699153;0.07280568368188134;0.005317985850932674;158.0;0.1681729546176836;0.06029182337000444;0.003646782899644935;157.0;0.15204767387657203;0.057990730632302326;0.0033732981405440827;154.0;0.14771282193731777;0.05826143162638789;0.003404384695089165;153.0;0.14898662580913882;0.059153624866222436;0.0035095997580902065;151.0;0.15103852567835102;0.06026786120973968;0.0036438126906028216;149.0;0.1523114973320113;0.06170746129617185;0.0038192221563058625;147.0;0.16451283037682035;0.06488349498137154;0.004222920232011342;141.0;0.15774999555353456;0.06527554533572003;0.004275038059583247;142.0;0.15811758616437327;0.06842518244753204;0.004697310946682497;146.0;0.15854629503996925;0.07385643239144181;0.005472412026659448;147.0;0.16005070860200765;0.08667639387915745;0.007537316215607375;143.0;0.1637878542086176;0.10632212976523518;0.011341292135856969;140.0;0.17770341858567762;0.09972746640299791;0.00997719339204093;141.0;0.17946248639628895;0.06136229682378229;0.0037730266109181425;148.0;0.1556332199965695
0.1421660990102093;0.020275624925445435;155.0;0.2257313328836561;12.0;0.13316510156489594;0.017788916097599073;155.0;0.21130073041773823;0.12723691797134218;0.016241626262643218;157.0;0.20343892656989743;0.12746839765155163;0.016300315647193284;156.0;0.20439032863065287;0.1270593113800892;0.016195710421026983;157.0;0.20590305541265141;0.12588515609047127;0.01589874257818418;155.0;0.20772602468189455;0.1256161324420604;0.015830960874387852;155.0;0.2100530219644262;0.008523556524567728;7.287951263543792e-05;145.0;0.06241313415360383;0.13090424557404812;0.017191515654445315;168.0;0.2150141191137916;0.13752469701736017;0.018971933003499142;173.0;0.21747695879235687;2.174591644125922;4.739790675761949;169.0;0.40768201690674954;0.13812547648657603;0.01914036330766705;170.0;0.21916364389173398;0.14072643331958093;0.01986910886582345;171.0;0.21828144989531398;0.14902698752069898;0.02228263696594871;171.0;0.21775229136698346;0.149734487728829;0.022494257984110897;164.0;0.22709015897973908;0.1308809110324006;0.017185747626719233;160.0;0.2133289914970374;0.08133202011407759;0.0066362641740458665;162.0;0.17384886917720044;0.0745633881421536;0.005578055921185563;164.0;0.1635730541135266;0.06828874804580747;0.004678710983738359;169.0;0.1549205159052415;0.06683972278577237;0.004482177994830697;169.0;0.15188562609341563;0.06670365766158287;0.004464025274437058;168.0;0.15244242055785281;0.06659443164819938;0.004449413017146999;164.0;0.15329230197960803;0.06702512337422356;0.004507134922611629;158.0;0.15408010151886686;0.07098184781089019;0.005054952619704205;145.0;0.1647830477902205;0.07266931233236675;0.005297871870810212;149.0;0.16115328459505823;0.070018495452712;0.004918492299301461;148.0;0.16076756638488945;0.07063466154125313;0.005005688591541464;152.0;0.16250789573675248;0.07249909641581062;0.005273469444262455;157.0;0.16387377106281592;0.07908484936280841;0.006274849045861555;151.0;0.16638190535136368;0.08971232103355811;0.008073961760155537;155.0;0.17633586681871274;0.0907540708106496;0.008263623134709575;154.0;0.17882808851289222;0.06843235335676984;0.004698378636546409;157.0;0.15829273853964193
0.12802095067569366;0.01640533993779769;146.0;0.21586669823809754;12.0;0.11920601368969412;0.014225444936525422;146.0;0.20136955974176515;0.11068919561427207;0.012268904718475632;147.0;0.1910700155960166;0.10979184966091018;0.012079147353159575;150.0;0.19063270188907955;0.109569213650532;0.012030379253873704;152.0;0.1920773404040211;0.10922948798112535;0.011952980869233762;153.0;0.1946306272766025;0.10938154065896608;0.011991477829489408;153.0;0.19738673880038446;0.008915879581583306;7.974062979628011e-05;145.0;0.06342843400806844;0.11570292257403264;0.013421357920986945;159.0;0.20284513022315803;0.11694654845453921;0.013715996710870553;162.0;0.20490832120910402;0.7727468663950723;0.5872445277625564;162.0;0.23749287609838624;0.12230986115042716;0.015000647415565253;161.0;0.2079502333627937;0.12778231919660588;0.01637870121619395;163.0;0.2074074167796568;0.14036632268048446;0.019767085106110024;169.0;0.20980078089534224;0.13641691765856517;0.018670116596840165;162.0;0.22051228348814325;0.11385711104757253;0.01298862679120807;154.0;0.1997846577019723;0.0795107223608254;0.006342189027101813;153.0;0.17913730756221677;0.07457328972679862;0.005579148214526366;157.0;0.17054890647217158;0.06692473969728778;0.004493250641778207;162.0;0.1599649355257629;0.06422943278686637;0.004138828316090389;164.0;0.15638911560903865;0.06333797119155486;0.0040248012896032725;161.0;0.15570974573232452;0.0629048451756793;0.0039699501073557665;162.0;0.15621880424200696;0.06311626462043987;0.003996579636000328;162.0;0.15743359687146546;0.06853896203108213;0.004711948265114729;148.0;0.16527232852611964;0.06912356522604515;0.00479308623781542;158.0;0.16544614943584454;0.06781000266549347;0.004612588892431178;160.0;0.16697268949911406;0.07009242668329817;0.004928867411974009;161.0;0.16974512702868363;0.07324278847150707;0.0053821150326038725;166.0;0.17207953566353754;0.07933312848055112;0.006314225656824031;157.0;0.17596410019851244;0.08906169559774761;0.007957081093680388;155.0;0.18534566556429904;0.08906217288362173;0.00795574541767653;154.0;0.1860114394854728;0.06679932345335865;0.004476781446108158;159.0;0.16298911079254336
0.13102556359086262;0.017223373361864795;157.0;0.21321519963977106;12.0;0.12290952236519515;0.01515599321700993;159.0;0.1964928385244269;0.11206416699612214;0.012599351792760356;155.0;0.1846948421845327;0.10933317598259275;0.01199263577910269;154.0;0.18310811097352026;0.10852180586960192;0.011815479771239307;154.0;0.1830651380761711;0.10909740210013259;0.01194107124748749;154.0;0.18429447184676592;0.11019385134332976;0.01218198896812536;153.0;0.18578756227783041;0.00921109413700963;8.511455359000772e-05;141.0;0.06555770775038391;0.11379192901555411;0.012990133208518054;153.0;0.18619940054556386;0.11645053514512003;0.013603965953430861;151.0;0.18716860423058054;0.29506272687728174;0.08610422141029189;125.0;0.1976734787942278;0.12066882188925113;0.014606111681201519;152.0;0.18830351795074482;0.1312082911263412;0.017263472706729094;150.0;0.18921098845491;0.14668395944727847;0.021574085125628056;159.0;0.1950950598552816;0.14626320611073235;0.021454396402150987;153.0;0.2066982482675789;0.11143706539294215;0.012458737045739831;152.0;0.18462634183806034;0.07478255316606869;0.005610589029567638;157.0;0.17946000305993406;0.06673252848028603;0.004467385099770409;152.0;0.1673374018917163;0.05650561021702175;0.0032003500506328506;158.0;0.15631246099547905;0.053752289443501945;0.0028959316135332234;153.0;0.1538550627440916;0.05346676011864125;0.002865690825257052;151.0;0.15399665693286635;0.05383097949369616;0.0029040746500139107;155.0;0.15469574958015012;0.05427131190157447;0.0029520969028145124;156.0;0.15589056142665297;0.05701408068654577;0.003258795168681634;153.0;0.16175199817277944;0.05889375036101796;0.003478507093472747;150.0;0.1619478759884567;0.059475366433150524;0.0035461434023074923;156.0;0.16365130255240046;0.06260207591526239;0.0039275236176217546;158.0;0.16582861252375922;0.06661260973207124;0.004446224370741805;166.0;0.16704203961948186;0.07059316772436167;0.004993812059943562;152.0;0.17049143132992695;0.07588369931882752;0.0057736235807856265;141.0;0.17966916031280478;0.07536133683865845;0.005696805337030754;146.0;0.18531595825580469;0.05759282942280998;0.003324922148752796;155.0;0.15997920628334625
0.12420421939493036;0.0154436905855596;167.0;0.1995707031645978;12.0;0.11522641431137046;0.013275456380945645;165.0;0.18814471909645955;0.11034566051698223;0.012163378063717978;157.0;0.18127889871993366;0.11123435311857192;0.012358787628888517;153.0;0.18094206625747122;0.11231038985680503;0.012595769896015806;153.0;0.1814153650027299;0.11324807936903397;0.012803490562462381;152.0;0.18120707573753217;0.1143849520042594;0.013058894514106066;153.0;0.18177719394610947;0.009037904898574608;8.194523739474952e-05;150.0;0.06685455104347583;0.11542692363793423;0.013290950808425928;148.0;0.17990175383791673;0.12045065683629409;0.014470636384111626;148.0;0.18324876915265442;0.17367023214455013;0.030231565691514493;132.0;0.18959382252889073;0.12287034496716596;0.01505861932299343;150.0;0.18018607936889208;0.13010626947785792;0.016865779549764297;143.0;0.18038417165924425;0.14409851359129827;0.02065770583232833;149.0;0.18544794097570408;0.15682378811294825;0.024441977264349848;148.0;0.19700329144273318;0.112662526917934;0.01266820055694512;147.0;0.17873374529436956;0.07073720721660037;0.005019930617715949;155.0;0.17722235594130153;0.06697056679243421;0.004499223079292627;150.0;0.1650901155728259;0.0646418766582428;0.004191624564270571;151.0;0.15776867189987984;0.06400325956887647;0.004109216717982686;145.0;0.1551579805620204;0.06379673683602746;0.004082743254901861;143.0;0.15462063505709195;0.06418288759363051;0.004132867820333403;145.0;0.1548014345050735;0.06385368451624178;0.004090621428203936;143.0;0.15527693600923065;0.06101622162901464;0.0037346067770647456;147.0;0.16230696858264518;0.07045618532926527;0.004976899942666474;143.0;0.1589579507288812;0.07079495154946096;0.005027676161570982;147.0;0.15928532293104306;0.07143638926032268;0.005119620898126692;144.0;0.16037663415467598;0.0736517483759513;0.005442319870799477;150.0;0.1603951453265395;0.07619408877290691;0.00582444515755444;145.0;0.1619481054315689;0.08207963478490916;0.006756078990327519;139.0;0.17043217052467813;0.08466769419105573;0.0071889873841677445;139.0;0.17741477733593805;0.06727453290784813;0.00453902354001879;146.0;0.15812078844830574
0.25277968433977943;0.06409223738599601;162.0;0.24487813874284847;12.0;0.24233539372781998;0.05889928034461116;159.0;0.24210130172764405;0.22165713794706432;0.04925721635163822;162.0;0.23155578081137065;0.22030359865863067;0.04865369551538425;166.0;0.23396587653274917;0.21565443854393473;0.04662810681825809;166.0;0.23324939666465325;0.21389832626426103;0.045876389380625736;163.0;0.2323740796047874;0.2147917317967001;0.04625512889798047;164.0;0.2339065753785026;0.00978846717859213;9.589177024778387e-05;144.0;0.06827995599827089;0.21424037606854685;0.04603116838309155;155.0;0.23266162086612044;0.2507065112152375;0.06302593045984382;160.0;0.24249659888958514;0.7961448212234868;0.628655733238825;145.0;0.2989045071868493;0.22019104338215692;0.04861926998071269;162.0;0.23448809232987342;0.22500439427227262;0.050776039998407345;158.0;0.23405932780781868;0.24203815584748253;0.058765973748476905;150.0;0.23666740612157788;0.25967094789355105;0.06760854526679051;161.0;0.24061774529397756;0.21054231213834676;0.04444806136990346;158.0;0.22955255241186417;0.09477294455165065;0.009006079048955125;149.0;0.19371708187621925;0.08543790027831684;0.007319139642371455;145.0;0.18205919413210306;0.07932554545905553;0.006308207169911802;136.0;0.1710635493534057;0.07772699269931521;0.006055147911090441;136.0;0.16829732139611364;0.0767073996074816;0.005896888075475197;135.0;0.16813800887071045;0.07590331817384495;0.0057748609943016425;138.0;0.16837787271384297;0.07570004551648551;0.005742849482371661;138.0;0.1694460951067934;0.07605062162739934;0.005794647560652301;149.0;0.1731624349264124;0.08090789357345565;0.0065617472975144885;141.0;0.17407693238265615;0.08255513176704993;0.00683090477957123;143.0;0.17450138975911655;0.08407648166706051;0.007084925423280833;140.0;0.17546830657763082;0.08688996096755991;0.0075651230787128106;142.0;0.17486036539239622;0.08971988066219472;0.008065172341171756;140.0;0.17387039067819168;0.09738240912427981;0.009499454026336467;141.0;0.17944682977439064;0.10090629590531308;0.010202824649568093;139.0;0.1828424437543553;0.07900974539562676;0.006256345643302626;135.0;0.17211374626531087
0.31989045890821644;0.10266396324866087;147.0;0.29459782559955483;12.0;0.30693457309332145;0.09450868795506584;142.0;0.28935995367345635;0.28498423040158677;0.08147385060422638;144.0;0.2801545446374869;0.2821206930964487;0.07984297296374032;144.0;0.2819209450865646;0.27822212338463387;0.07765521654636967;145.0;0.28068307518860597;0.2761399473372674;0.07649625877080897;146.0;0.27975998327332513;0.2771080374987306;0.07703908205203792;148.0;0.28128805259936057;0.010852343426582927;0.00011813457796403474;149.0;0.06946644608080405;0.27906226129647105;0.07812958553566574;142.0;0.2818566528472793;0.30853934143746803;0.09550355836153814;147.0;0.2895452634158867;1.6327002498496346;2.66646151486703;169.0;0.3996163728719955;0.2902204072162392;0.0845031385386242;148.0;0.2874308467714057;0.2939212099020427;0.08667158666668635;150.0;0.2869887193775023;0.311702897055959;0.09747656966595764;146.0;0.2881434205295007;0.3098098848444865;0.09629232283345399;149.0;0.2857259500524436;0.2752966145008227;0.07603366367865198;146.0;0.27789503463997767;0.11621903473535387;0.0135509642074181;156.0;0.214244386374846;0.09850487599020308;0.009734892909254859;153.0;0.19728635691213803;0.08567711941739542;0.007364566877789609;140.0;0.18196389780452077;0.08332288414874511;0.006965435650750196;137.0;0.18037345940906346;0.08263478292185655;0.0068508615223175535;136.0;0.1806143088722328;0.0817373420359583;0.006702760222481411;139.0;0.18056658150970195;0.08191083050236879;0.006730384987711945;142.0;0.18198001425030996;0.08655156541124422;0.007515640608246657;164.0;0.1845312388621885;0.08361042588482968;0.007010636773123608;140.0;0.18611499536591838;0.08515833026800197;0.007274202892531233;142.0;0.18712119948230913;0.08637937725191476;0.007484939379586058;142.0;0.18795851265676686;0.08860548611072401;0.007876196049152734;144.0;0.18732536083585521;0.0913702529143414;0.008375508647072406;139.0;0.18610946282934004;0.0979998431679301;0.009635348753491948;147.0;0.19011829310865525;0.10039520994279656;0.010112134395717105;146.0;0.1902702707720149;0.08447997325443211;0.0071584045807281645;141.0;0.18371335696039928
0.2531890493355382;0.06430589896770848;140.0;0.2614959378308133;12.0;0.24453263347288237;0.05998250192212014;140.0;0.2542599093144317;0.23627009691253584;0.055995457890673506;132.0;0.2495942582562238;0.23598946893083528;0.05584747287380766;131.0;0.24989670752994242;0.23852245293931176;0.05706784588510278;133.0;0.25125292162708485;0.23706810849178248;0.05637735910522482;134.0;0.25294139139374183;0.2344688276326071;0.05515219165570837;139.0;0.2541899559923483;0.010057662915453463;0.00010128838300076959;163.0;0.0671041230677165;0.23575761333296433;0.055761028648169245;146.0;0.2571398687464702;0.23787945138705738;0.05676603791254552;144.0;0.25925869380660255;1.5263740832678996;2.3257523533035305;142.0;0.3244796339484703;0.2581631836163126;0.06686602266952549;146.0;0.26437140356820726;0.2755609608393942;0.07618175192503152;148.0;0.2669879270420874;0.2990321281910346;0.08969856365826874;146.0;0.2734220084763096;0.2705110189959528;0.07341109667928311;141.0;0.26924362563411136;0.23349857924343348;0.054693949288134265;143.0;0.2536403306319445;0.11889109289952556;0.014179220037527043;160.0;0.2129269102772748;0.1038464843608424;0.010815856603756875;159.0;0.1940662922466616;0.095055760316167;0.009063233002953948;152.0;0.18099167143331185;0.09409055137854842;0.008879124488423472;147.0;0.17895929402813085;0.0938521842741915;0.008833350958001618;149.0;0.17849686267412362;0.09324580217448536;0.008719867584525986;153.0;0.17784280377639583;0.0942087208628187;0.008899916434730886;155.0;0.1789670877563344;0.09478202339980811;0.00900880803703458;168.0;0.187752680913939;0.09489764873995239;0.009029082290473094;153.0;0.1806327258695228;0.09496008627096889;0.00904127036524585;153.0;0.1811606943312517;0.09473790981465555;0.009000419002225249;153.0;0.18208322948571118;0.09458770962038217;0.008969109154188226;154.0;0.18177802649887226;0.09584140852720192;0.009205597150413915;152.0;0.18205239496613995;0.10053496643409912;0.010125082338356973;155.0;0.188281007376654;0.10056309815496782;0.010124319281029533;150.0;0.18817890771762982;0.09581635318330722;0.009204038637828302;159.0;0.17863829421784666
0.17280944212697857;0.029917157842392975;153.0;0.22721190436326125;12.0;0.16916652808578406;0.028649781165223317;156.0;0.21768713904242237;0.16838343348566093;0.028381120718234582;150.0;0.21349348276730085;0.17186070486572458;0.029595454926186936;150.0;0.21544506798105348;0.17684022483664927;0.03132426062102181;156.0;0.21859671249590726;0.1737150615400227;0.030212520436134545;160.0;0.22139843324685127;0.1686337512905061;0.028465900965392216;158.0;0.22303049787770368;0.008983699532227593;8.095189530719827e-05;155.0;0.06510982101735709;0.17056527852255887;0.029138975608830796;162.0;0.2291918481490097;0.17435987185765592;0.030453972958982393;157.0;0.23201170763917003;0.5769258593793416;0.3294468454791304;147.0;0.21589744333932215;0.19111982892556;0.03658377545110533;157.0;0.23384931230930672;0.21424154435878823;0.04596264693317527;159.0;0.23461329101552592;0.23934708666057183;0.05734906405864193;154.0;0.24229189179987318;0.21352585460836718;0.04562270509617611;150.0;0.23978727416365977;0.16870457247353812;0.028509353127359836;160.0;0.22572841040572567;0.10244187260778588;0.010528543545958257;150.0;0.19015614429582992;0.09280921257512498;0.008641241144177173;152.0;0.17794085315299088;0.08830520683225906;0.00782255378083232;158.0;0.167594427665658;0.08839093925697429;0.007837585509056284;159.0;0.16568454948552536;0.08804632661990688;0.007776811358853205;160.0;0.16584638415546887;0.08730001700382388;0.007645288521417915;163.0;0.1660370218950917;0.08786146507826388;0.007742647914802354;162.0;0.16699081052450607;0.09005402131920077;0.008136204736098164;169.0;0.17526292281755917;0.08906487414319382;0.007957068219446443;150.0;0.16709705888922405;0.08870039609438553;0.007891861497473214;151.0;0.1674300039510458;0.08883270614606477;0.007915929682187234;162.0;0.16887535234657167;0.08961157941733881;0.00805440463215798;168.0;0.16757686827763402;0.09087639744128971;0.00828338484002168;164.0;0.16902867567780377;0.09576288374021616;0.009199196159963612;160.0;0.1775215355406304;0.09703766078328525;0.009445873498625017;154.0;0.18218591567026865;0.08732189175923918;0.0076476874753468385;168.0;0.16593545543365765
0.15068359670369352;0.022770566945353166;167.0;0.23365648665435831;12.0;0.1363805447511084;0.01865644518473739;160.0;0.21784835879750403;0.12962073551897957;0.016855235812647296;160.0;0.21171011490526306;0.1305490423121704;0.017097510566010603;158.0;0.2130790001041005;0.1330289034547632;0.017753304575263362;161.0;0.21526677198517302;0.13302468985889154;0.017752858713769575;165.0;0.21763644206322164;0.13504274532476954;0.018295593004202564;162.0;0.22042672943868136;0.00872750712402727;7.63972969272168e-05;148.0;0.06377295995450724;0.14267331123964047;0.020421874102462503;161.0;0.22435477235677032;0.14692221062444322;0.021656153241151846;162.0;0.22634221388058817;0.23362705807997775;0.05445711068305699;155.0;0.22074615715887286;0.14593824462937074;0.02136689686654041;162.0;0.2251164302883412;0.14882971236342238;0.0222200422930775;159.0;0.22291157222983368;0.15996855599883603;0.025664641057198838;156.0;0.22389174220867356;0.1527598904538349;0.023406288992835925;156.0;0.2263086366675111;0.14045363527161625;0.019791675687739572;161.0;0.2217210500847345;0.07506908936312794;0.005653454738978879;142.0;0.1769131723242373;0.06705629765394232;0.004511457442031898;142.0;0.1627901230933138;0.0619248031068618;0.003847371907281838;152.0;0.1509835562477987;0.06135184213120827;0.003776417479161964;160.0;0.14785973782777334;0.06057049989474335;0.0036809158660766304;161.0;0.14731685278585888;0.06002050529359984;0.0036143638124502735;162.0;0.14779255606499567;0.059957898425482846;0.00360683477054173;161.0;0.148430516194298;0.06367451400972796;0.00406737950154181;167.0;0.15949600939395786;0.0608821732239876;0.0037184304267116174;147.0;0.1485094362979757;0.05892608656516332;0.003483468255596154;149.0;0.14845826884617888;0.058776818440472715;0.0034660826260264482;162.0;0.14975199924580118;0.06037521006757504;0.003657157279471132;161.0;0.14932389415110675;0.06280192152058604;0.003957002028176408;163.0;0.15240276786100407;0.06895260879195267;0.004769788921059038;169.0;0.16018076296680267;0.06923120787005736;0.004808640791715939;160.0;0.16426153301747556;0.05640296376108835;0.003191808061028616;165.0;0.14641085228702752
0.13645180562714276;0.018678309441418586;158.0;0.22836437893405542;12.0;0.12262585280867064;0.01508420343568984;150.0;0.2120832137116383;0.11184569418322089;0.012549929214193092;149.0;0.20003171122915406;0.10980766612142547;0.012097475541510623;152.0;0.19911972548901735;0.10974539967554166;0.01208377445996112;154.0;0.1996678651072411;0.1121512680905403;0.012619265560478298;156.0;0.2020864374081693;0.1148519898521514;0.013234299620885062;162.0;0.2042914536341546;0.008867752976593653;7.888928565470491e-05;151.0;0.06561579999391356;0.12115028334056026;0.014725648277234745;158.0;0.20496241365618204;0.12153264328651617;0.01481769479902399;160.0;0.20481414393732605;0.15867086257474636;0.02523456825008832;138.0;0.2060195036416235;0.12378215813161834;0.015370014659944134;159.0;0.20425344202804743;0.1275846077783735;0.016326536999936764;158.0;0.20529492984742054;0.13747299725136647;0.01895602037359254;153.0;0.20803788267023496;0.1322596027795861;0.01754754829131389;156.0;0.21220973205935942;0.11922184495810884;0.014260400962912478;159.0;0.20361323052150668;0.07058750395640614;0.004998883676658168;149.0;0.1751027093328506;0.0606032668741116;0.003684629423838524;145.0;0.1600840181171176;0.05255766555261477;0.002771270084197989;152.0;0.1481045606015589;0.05087868977754611;0.0025970665900120616;151.0;0.14409413898393839;0.050133847989402285;0.0025215590963171552;151.0;0.14317963190833075;0.04986849340553477;0.0024949555345014653;151.0;0.1430287689743635;0.05028293253526143;0.0025363455912028763;151.0;0.1434868392968344;0.04986698113849143;0.0024946804365535836;157.0;0.15242945094362131;0.051092105200258094;0.002618831877424311;162.0;0.14255675766127338;0.049676255458223226;0.0024757760765866913;154.0;0.1432984695405902;0.050367680063214494;0.0025449592517667262;151.0;0.1448866940542683;0.052334229589844586;0.0027471510588469193;140.0;0.14606458738422828;0.05567505237543203;0.0031088337489591834;146.0;0.1495068646036614;0.059203832866504304;0.003516173242726541;161.0;0.15640098944837288;0.05596520895290815;0.0031422005373194025;158.0;0.15574374819073938;0.04789665134810527;0.002301581542546291;156.0;0.13924424409961086
