rms_s1_ch1;var_s1_ch1;zcr_s1_ch1;wl_s1_ch1;rotule;rms_s1_ch2;var_s1_ch2;zcr_s1_ch2;wl_s1_ch2;rms_s1_ch3;var_s1_ch3;zcr_s1_ch3;wl_s1_ch3;rms_s1_ch4;var_s1_ch4;zcr_s1_ch4;wl_s1_ch4;rms_s1_ch5;var_s1_ch5;zcr_s1_ch5;wl_s1_ch5;rms_s1_ch6;var_s1_ch6;zcr_s1_ch6;wl_s1_ch6;rms_s1_ch7;var_s1_ch7;zcr_s1_ch7;wl_s1_ch7;rms_s1_ch8;var_s1_ch8;zcr_s1_ch8;wl_s1_ch8;rms_s1_ch9;var_s1_ch9;zcr_s1_ch9;wl_s1_ch9;rms_s1_ch10;var_s1_ch10;zcr_s1_ch10;wl_s1_ch10;rms_s1_ch11;var_s1_ch11;zcr_s1_ch11;wl_s1_ch11;rms_s1_ch12;var_s1_ch12;zcr_s1_ch12;wl_s1_ch12;rms_s1_ch13;var_s1_ch13;zcr_s1_ch13;wl_s1_ch13;rms_s1_ch14;var_s1_ch14;zcr_s1_ch14;wl_s1_ch14;rms_s1_ch15;var_s1_ch15;zcr_s1_ch15;wl_s1_ch15;rms_s1_ch16;var_s1_ch16;zcr_s1_ch16;wl_s1_ch16;rms_s2_ch1;var_s2_ch1;zcr_s2_ch1;wl_s2_ch1;rms_s2_ch2;var_s2_ch2;zcr_s2_ch2;wl_s2_ch2;rms_s2_ch3;var_s2_ch3;zcr_s2_ch3;wl_s2_ch3;rms_s2_ch4;var_s2_ch4;zcr_s2_ch4;wl_s2_ch4;rms_s2_ch5;var_s2_ch5;zcr_s2_ch5;wl_s2_ch5;rms_s2_ch6;var_s2_ch6;zcr_s2_ch6;wl_s2_ch6;rms_s2_ch7;var_s2_ch7;zcr_s2_ch7;wl_s2_ch7;rms_s2_ch8;var_s2_ch8;zcr_s2_ch8;wl_s2_ch8;rms_s2_ch9;var_s2_ch9;zcr_s2_ch9;wl_s2_ch9;rms_s2_ch10;var_s2_ch10;zcr_s2_ch10;wl_s2_ch10;rms_s2_ch11;var_s2_ch11;zcr_s2_ch11;wl_s2_ch11;rms_s2_ch12;var_s2_ch12;zcr_s2_ch12;wl_s2_ch12;rms_s2_ch13;var_s2_ch13;zcr_s2_ch13;wl_s2_ch13;rms_s2_ch14;var_s2_ch14;zcr_s2_ch14;wl_s2_ch14;rms_s2_ch15;var_s2_ch15;zcr_s2_ch15;wl_s2_ch15;rms_s2_ch16;var_s2_ch16;zcr_s2_ch16;wl_s2_ch16
0.06521037268599707;0.004265605530153902;156.0;0.1380207289139966;12.0;0.06808815621833593;0.004650434045682274;155.0;0.13962499566775935;0.06698747368296296;0.004501763005343968;157.0;0.1423806901098696;0.06691138529175154;0.004491557828588025;156.0;0.14412638283811535;0.07574430831693099;0.005755178257047553;154.0;0.15137924565483352;0.0868866012303919;0.007573868352657249;154.0;0.160643478792313;0.07707519824443117;0.005959516666402666;155.0;0.15158297359704773;0.06291225801834918;0.00396997499260571;151.0;0.13368750187189526;0.07318577543359543;0.005370242672505686;140.0;0.1355939978316351;0.08094145688146084;0.006568343249547387;137.0;0.1397431178926343;0.08166198107487277;0.006687732054500539;145.0;0.14073288562923975;0.0771932065450636;0.005976369628321645;148.0;0.13912575605259783;0.0732652006460563;0.005383846433669926;156.0;0.13913565831903982;0.07180275405269156;0.005171471900654348;152.0;0.14070745265726994;0.07154961248599297;0.00513511914371603;149.0;0.14070615018894636;0.07172874361407566;0.005159895402986694;150.0;0.134475892105664;0.06720362011589255;0.004529894557433338;147.0;0.12341421461738974;0.0664319928450499;0.004425563343530713;144.0;0.12266822997283643;0.06845135199827339;0.0046993468596812325;136.0;0.12378791950563714;0.0716240303706833;0.005145297948095011;141.0;0.12378108810280679;0.0750398839979701;0.005649032971433931;137.0;0.12399229403832422;0.07871745322486752;0.006216482050266093;147.0;0.12717842955553013;0.07625666098961127;0.005833992785974856;143.0;0.12365741107263392;0.06310584916296036;0.003994243643424218;148.0;0.12302208198964946;0.06315829235127264;0.00400199960127765;167.0;0.1178080502803579;0.06508082054429247;0.0042493043458943025;159.0;0.12180046670904728;0.06863065132963302;0.004725483566254346;154.0;0.12480871915052019;0.06671274153031605;0.004465127150962299;149.0;0.1235996666163384;0.06712086607658006;0.004519817546980398;159.0;0.12364286516607242;0.06813291695797499;0.004656693917108655;150.0;0.12436359678386734;0.06676141802633148;0.004470888682453134;146.0;0.1248580556222294;0.06446494393509226;0.004169266778769895;169.0;0.11966985282260233
0.06531177806291294;0.004278980982937793;143.0;0.1393955485813814;12.0;0.06899198693190951;0.004774865926222598;146.0;0.14132708652210396;0.06460016708546643;0.004186781045009875;158.0;0.14020547279651674;0.06262826566665937;0.003935117477737775;158.0;0.13840670096740393;0.06535470445097208;0.004284839470902742;151.0;0.14034968189329775;0.07243972507475975;0.0052645830265559005;150.0;0.14655936765498537;0.06707260795816256;0.004512963666016844;151.0;0.1415063851325625;0.05967462677771807;0.0035726645212265486;144.0;0.13212598208148105;0.0599806988894968;0.003609099187695445;149.0;0.12790408303705167;0.06446389383247661;0.004168364025150182;150.0;0.1287184456429962;0.06731663980244763;0.004544833837680032;151.0;0.13084084617267452;0.06352335290213476;0.004047232075377132;150.0;0.1296654809724062;0.059324012518527015;0.003529955660590987;159.0;0.1288555594522921;0.05784990654442311;0.003356257383812083;150.0;0.12934309540565253;0.05799668981771869;0.00337372974587367;153.0;0.13100570567090986;0.06199565804084045;0.0038560090582686656;149.0;0.12830967008213146;0.0674966075800459;0.004557730925919817;148.0;0.1347237784993303;0.06788159564715684;0.004609994578533689;147.0;0.13519557754192277;0.06895423295380085;0.004756371125753483;145.0;0.13461724288572313;0.0695321320088063;0.004837354193644849;146.0;0.132920487962903;0.07030695490186181;0.004944654360971426;151.0;0.1305137910134952;0.07087970562771238;0.0050261687952531655;150.0;0.13015439923603905;0.0699007652592004;0.004889901255550995;151.0;0.12621311858619763;0.06392515357164694;0.0040887291562324065;147.0;0.13465064595021595;0.06322699056791556;0.004005628797446665;157.0;0.1220895730393653;0.06397730960939055;0.004102038221682658;159.0;0.12565904307188375;0.06567748546856705;0.004323912473511191;155.0;0.12730036105034184;0.06515486596450372;0.004254502025313267;156.0;0.1277688179464003;0.06718308573259156;0.004520233860849065;152.0;0.13008122988396895;0.06891819119483035;0.004754341376133991;154.0;0.13168575841023045;0.06672412958337694;0.004456577423039463;154.0;0.13248223267361028;0.06392646411872568;0.004093365664801289;156.0;0.12153262661628429
0.058359516558800506;0.003416165903084728;148.0;0.1409880044275583;12.0;0.062348772818346776;0.0039000757050735484;145.0;0.14226912408079118;0.0589350288986043;0.00348459277393118;150.0;0.13909132974441013;0.05509293976846045;0.0030450820458781183;152.0;0.13473797862605158;0.05354140620087484;0.00287604745093873;160.0;0.13110942241639742;0.05667789861846862;0.003222859868212125;158.0;0.13265760500041426;0.05337671526493304;0.0028583732700921552;159.0;0.1294778247197205;0.05118303431726088;0.0026274274394084162;158.0;0.1333668416956885;0.05570533085045283;0.0031040828169470796;164.0;0.12865271603977713;0.06064582997397882;0.003679020545141393;162.0;0.12877055587379116;0.06348249575590544;0.004034459571320877;164.0;0.13053054492107524;0.05893050994634876;0.00347819441969654;162.0;0.1288903652778914;0.05427637518876711;0.0029523990485185395;159.0;0.12827697726411497;0.05235971803891318;0.002748685019034076;148.0;0.12969903828544335;0.050987809749410376;0.0026077456795161524;155.0;0.13199863245644736;0.05417980293713363;0.00294188451296406;159.0;0.12573834059627234;0.051028704941743906;0.002612167796385936;139.0;0.12311490860205912;0.05170087701374297;0.002681051363510247;134.0;0.12340322082063858;0.05154570722637297;0.0026646412113395393;133.0;0.12220185430994568;0.05039096725906266;0.002547371004461709;137.0;0.12012270662833771;0.05105462961815055;0.002615000957668304;149.0;0.11977081128002862;0.0525405155775557;0.0027694536774049163;150.0;0.12102430295757416;0.05053681600476489;0.002561963761985769;155.0;0.11607116399579516;0.048786552864488464;0.0023875658748672176;140.0;0.12264977911139047;0.0480367690039152;0.0023149863432457025;148.0;0.11185718035654364;0.04935472020770951;0.0024436599955239913;152.0;0.11384514130130392;0.04865656455749821;0.0023752010325883122;153.0;0.11327758540291342;0.04818494705106349;0.0023292985657117826;155.0;0.11436518593051298;0.04778662795740427;0.0022910224168283017;149.0;0.11615811693576346;0.04878286167547151;0.0023874137653166344;154.0;0.11903682626439413;0.04776481614192335;0.0022888099329941027;151.0;0.12062326620164254;0.04885745715504065;0.0023947731097982263;147.0;0.11070792053602183
0.04720675083271056;0.0022268197391525904;160.0;0.12714015735354897;12.0;0.04900596901980957;0.0024023775362726186;152.0;0.12719235867543152;0.04945910669460122;0.0024483769994761663;155.0;0.12660230744660886;0.04791209382284114;0.002297681437463655;159.0;0.12492439773753349;0.04917512509817418;0.0024173386789802026;164.0;0.12455952996349681;0.05256212370355182;0.0027613412153794903;165.0;0.12606002733860153;0.04980364310771085;0.002478380382401906;166.0;0.12351895400249902;0.04270738590604168;0.0018235539430804738;166.0;0.12278124505849373;0.05441102745001582;0.002967308000963125;162.0;0.1252209125332793;0.060635433001635444;0.003686298144991941;155.0;0.12656239943652361;0.06432465006467869;0.004149140243294121;162.0;0.12787349856755784;0.05985449938429648;0.0035917226753697114;164.0;0.12574877421203892;0.05502075847229683;0.0030342139028517573;164.0;0.12419853563544522;0.0532394247484645;0.0028387703280860245;155.0;0.1256112047908238;0.0521435624469364;0.002721583569124325;155.0;0.12717337254169822;0.05078155615533442;0.002585672650837965;168.0;0.12125177716856521;0.04490533434668844;0.002022889574992975;147.0;0.11578953901307198;0.047215670302362726;0.0022365601024485625;138.0;0.11728979349666711;0.04639012887514345;0.002159083092566355;137.0;0.11680107738764374;0.04569848955250422;0.002095081602386231;139.0;0.11539863348183073;0.04566426435986253;0.0020920461725904924;147.0;0.1147342870232511;0.047245204836034775;0.0022391787656049784;152.0;0.11815633916858266;0.04494697945457629;0.002026598286709117;160.0;0.11361637066548634;0.04226161599399593;0.0017913191376486943;150.0;0.11437628839382614;0.03892337684337772;0.0015190692497565107;157.0;0.10792036640751858;0.04055729180872766;0.0016499362058325874;157.0;0.1081097587575741;0.04022976809144906;0.0016227054856347558;159.0;0.10643983085861373;0.04131796192663668;0.0017118002495759108;156.0;0.10717608796943083;0.04201345888660208;0.0017701111814758142;153.0;0.10781504938242052;0.042724480022285675;0.0018308089320667785;153.0;0.10986589036895317;0.04265618927006228;0.0018246819867204027;151.0;0.11057557457318533;0.040353907485913075;0.0016329917261849554;153.0;0.10793339144113208
0.046658367619607254;0.0021838699992448142;149.0;0.12096873835517646;12.0;0.05054759314831198;0.002562652320946984;146.0;0.12375676060134994;0.05274671405796416;0.002789545345503574;158.0;0.12616460508901037;0.05141138150886866;0.0026496543744907583;161.0;0.12491637005452909;0.05589056954926978;0.0031316997714916067;152.0;0.12721197213956714;0.06384093608210863;0.004085104247680996;155.0;0.13302912450790003;0.059598577018935804;0.003559765329888682;155.0;0.12873572574688508;0.042002218115086754;0.0017699487148278342;149.0;0.11740843486940734;0.04511541913644318;0.0020401915481742137;156.0;0.11769403507508795;0.05032880561104531;0.002534574355662247;144.0;0.12057858862195281;0.05198586730622712;0.002706124186107278;147.0;0.12250159130533501;0.04860579312056084;0.0023661328689745897;153.0;0.12064479328518242;0.04616074426205909;0.002136907915404462;162.0;0.11942959486656458;0.046623284126244294;0.002180700780361479;158.0;0.12076144184826895;0.0478852778363666;0.002300149419755516;149.0;0.12365125795131852;0.03958652350446337;0.0015718588239503422;161.0;0.11319957451389075;0.04574391564199992;0.0020992484173736094;151.0;0.117717863657872;0.04770369234995472;0.002282949657943594;148.0;0.11845465934756273;0.04601882714871895;0.0021244581293014303;144.0;0.11775954619804692;0.04493761480721393;0.0020259611281165948;146.0;0.11543785145501555;0.04397190052892998;0.0019397894510793344;146.0;0.11418957794342678;0.04565567171562287;0.0020912393361613353;154.0;0.11795437002858744;0.044606861873341876;0.0019961249555247593;154.0;0.11378984676870643;0.04397919417399374;0.0019404523096087025;152.0;0.11690479939043813;0.03995724924267794;0.0016017171705772072;156.0;0.11130830583398929;0.04084894608967307;0.0016740055476646256;153.0;0.11190267621908402;0.041378943622495654;0.001717554055047379;151.0;0.11165285154282452;0.04092597613837065;0.001680186796438347;151.0;0.11015946206876329;0.04076812058468514;0.0016671308473681448;153.0;0.1107773093959997;0.041991183424044544;0.001768728860699243;155.0;0.11265268483332604;0.0429690439840751;0.001852281457342226;153.0;0.11383636681553252;0.04015516169241374;0.001617655428547546;144.0;0.11037882699286232
0.04930470729538551;0.0024366157119781995;150.0;0.12455531329046704;12.0;0.05770618371191031;0.003339029000547335;153.0;0.1315679702511376;0.062476398736669374;0.003914819738400872;158.0;0.1372286823134939;0.0602646063272853;0.003642337355361027;160.0;0.13557854178901557;0.0635518264057119;0.004049930699777934;152.0;0.13648816971202432;0.07302163669730635;0.005346609719393058;150.0;0.14369164050791175;0.06899778396032082;0.004773496123466263;147.0;0.13963365892026874;0.0437051181884344;0.0019152811206674524;149.0;0.11939141957336033;0.050717785095056866;0.0025803232015939722;149.0;0.12282462161895306;0.05933604944844343;0.0035311424007246624;153.0;0.12702238402478883;0.05859011058984861;0.0034430177054164865;150.0;0.12700276206321595;0.05312217026788845;0.0028289416933623716;151.0;0.12325695878264449;0.04852602039401841;0.0023607837669009047;148.0;0.12197028786747587;0.04724798276255393;0.002237502500282143;147.0;0.12401330033659808;0.045964357042248286;0.0021182907529592476;146.0;0.1263823628956446;0.0432887831476061;0.0018800120647723135;150.0;0.11832767865611822;0.04791283785957434;0.0023024670308351334;150.0;0.11398996495074323;0.04801156235174577;0.0023120541377939815;151.0;0.11363428974290633;0.04742710530522088;0.002256252568927622;150.0;0.11264684531295621;0.048254817083554336;0.002335910482721583;152.0;0.11109074072671449;0.04800455667096306;0.0023119554953827037;153.0;0.11125962362967526;0.04967502358793154;0.002475666684447676;154.0;0.11379440491787471;0.04856644164303462;0.0023664036774797407;151.0;0.11079838165925723;0.04634240276875357;0.002153670003202607;153.0;0.11333182872345011;0.04530278885629823;0.0020590247484321288;151.0;0.10674632794753709;0.046182860884654175;0.0021397179249292753;154.0;0.10655166232387678;0.04579601564032157;0.002103966576345515;149.0;0.10693883235792531;0.04570299403401464;0.002095082068931403;153.0;0.10499052233004655;0.045482368516094586;0.0020748996599037114;153.0;0.10683624055612;0.047431361513302545;0.0022560742962944662;156.0;0.1095588610970851;0.047439928194344144;0.0022568216110895674;153.0;0.11283457225521255;0.045691778874228005;0.0020945242560532562;146.0;0.10664097351831499
0.05528538022279412;0.003064068241408454;159.0;0.12700599732103712;12.0;0.06369088253177335;0.004066537331630107;166.0;0.13247369118638883;0.06737960626705816;0.004551421346864921;171.0;0.13524830994804163;0.06433086087267184;0.004149918718692509;166.0;0.13415127924906836;0.06562219234871824;0.004319409517569502;164.0;0.13662377015727187;0.07367622704397077;0.005445928396894501;159.0;0.145019629967339;0.06983947058614072;0.004893430276622988;157.0;0.1416029808928323;0.04714466910530771;0.002228028074707128;156.0;0.12151874911157534;0.05503512527543142;0.003035902725118634;151.0;0.1264789988670665;0.06089985649556328;0.003715578243818062;160.0;0.12935879888596977;0.05959542602775341;0.0035588546273026037;157.0;0.12859206743298124;0.05569887852679045;0.003109056411109434;155.0;0.1250543716730563;0.05259646187379693;0.002772786998118013;148.0;0.12395925241939346;0.052626428665985055;0.0027756042636491477;146.0;0.12582140042867848;0.05246202699735193;0.002759104638990935;153.0;0.12756936742397576;0.049380228699592854;0.00244517226708552;144.0;0.12175861299262614;0.04729528201616366;0.002242418989041796;159.0;0.11797081338686452;0.04736901230607167;0.002249481706376791;159.0;0.11840987613733465;0.04733681251117698;0.0022463876379590314;162.0;0.1183076026817184;0.04870607474008984;0.0023780492013250254;165.0;0.11712833195574843;0.04923775902075748;0.0024297122293221573;164.0;0.11784723561587492;0.05125137687278335;0.0026330377253636333;155.0;0.11981738335758144;0.04957623743938743;0.002463875270643032;156.0;0.11644468054779956;0.04593873700781706;0.002116080294745511;164.0;0.11697769056041825;0.046102905044615096;0.0021319655515035963;150.0;0.10772779066226466;0.04751661321124573;0.0022647860613171106;154.0;0.10710066419262557;0.047191853357443254;0.002232764912758038;152.0;0.10867491652648338;0.047315519510125456;0.002245379983334298;152.0;0.10805766686080458;0.048227020109998485;0.0023330427967411115;151.0;0.11123915111279778;0.05050047017989157;0.002558527867948298;151.0;0.11369300884714655;0.04944086542006605;0.002452293010467522;152.0;0.1168790481101245;0.04561974554728314;0.0020877012555065508;147.0;0.10676641648746928
0.053955581596179136;0.002919172603626129;159.0;0.12245230705177185;12.0;0.06218023082132312;0.003876426862663265;166.0;0.1261157353237116;0.06480911797942475;0.004212343701918297;178.0;0.12683822951423054;0.060276356053279516;0.003643877221340796;176.0;0.12441151942267004;0.05885826015556672;0.003475077666889349;174.0;0.1263366899534548;0.06472727955786535;0.004202910635968593;166.0;0.13457084597419405;0.06034430112534238;0.003652998656952827;160.0;0.1292314050824708;0.04491287107641598;0.002023228732452742;159.0;0.11555896398406612;0.04347733991088276;0.0018963952619186091;163.0;0.1150522873416819;0.04295479577877665;0.0018511304228870326;153.0;0.11618546710368499;0.04168125342610096;0.0017426435296238377;149.0;0.1158959153464539;0.04059264227598495;0.001653147802411877;152.0;0.11427196124132835;0.04124965455006594;0.0017067950141790996;158.0;0.11357299680542937;0.04394461448932105;0.0019364056259588605;159.0;0.11503789063439183;0.0466723014194694;0.0021845299325479726;161.0;0.11767241833847779;0.042570242197761975;0.0018181329898832152;152.0;0.11089787806223961;0.04154122034701291;0.0017313040328008138;154.0;0.11409256756977562;0.04169328241496154;0.0017439820859700595;149.0;0.11554073528652996;0.04124019399059608;0.001706307120902712;151.0;0.11554852928939843;0.042694724641656225;0.001828720249568193;157.0;0.11357343729781301;0.04498926291854522;0.0020306557617068657;158.0;0.11308468514340358;0.047703685092357485;0.0022830699263552724;155.0;0.11585947693578048;0.04502872611565348;0.0020342137625433214;156.0;0.11094160037969042;0.03972549037367816;0.0015832675895161553;150.0;0.11279797145077126;0.03930740375560278;0.0015497943799166723;143.0;0.10499329495622267;0.0401562564875119;0.001616531619112283;147.0;0.10481941573080358;0.04055681561726483;0.001649744740433274;144.0;0.10618874385842136;0.03968766499961817;0.0015799542471456281;142.0;0.10567467675152364;0.04217367575651496;0.0017836650308240348;143.0;0.10994819645201354;0.04482785688850957;0.0020158726635872235;142.0;0.11282608552727026;0.04583666174118424;0.002107690561301345;140.0;0.11505775453874222;0.03950758046863834;0.0015656843980055262;140.0;0.10304238853073237
0.04728075456186219;0.002226438425626293;140.0;0.12241735089279626;12.0;0.056687465979137326;0.003202655724092834;152.0;0.12773083035586008;0.060573610939992514;0.0036550113489498765;155.0;0.13079382863600647;0.053577100811658035;0.002860588645703646;158.0;0.12415425943423719;0.04833307238210016;0.002331132781995985;157.0;0.11959946102658701;0.05100159667019252;0.0026027251022974654;145.0;0.12325886689151647;0.04752602145824978;0.0022600743312306123;140.0;0.11904653350865374;0.03887155212551968;0.0015021623782288317;139.0;0.1143721376438088;0.039809262514787856;0.0015835559108353877;154.0;0.11559795012911338;0.04147282694980446;0.0017165746270157805;143.0;0.11595902503933728;0.04344733466517584;0.00188343733761514;143.0;0.11561715996873653;0.041858981515907355;0.0017485773075950528;146.0;0.11428158477224316;0.041142078560398865;0.0016870943275109046;148.0;0.11315971932182506;0.04197705840543873;0.0017555745749378475;150.0;0.11395953897621419;0.04175940354983004;0.0017357873553916292;147.0;0.11572974404336214;0.037325400762927896;0.0013927067719274944;145.0;0.11106841733112623;0.04083922704789753;0.0016723032864502559;145.0;0.1125551578120452;0.04069346641703259;0.001660326419762883;142.0;0.11377239774954938;0.04005327738593481;0.001608675274600915;143.0;0.11395799701952211;0.04096964902998572;0.001682716016729358;148.0;0.11220516072312436;0.0441339450046476;0.0019526586387280341;146.0;0.11186081041577227;0.04890869907957602;0.0023976211327057973;147.0;0.11752346153811456;0.04630694897381593;0.002148052309060669;142.0;0.11076113469244296;0.04004670661914547;0.0016079841283557035;144.0;0.11229642031348468;0.03635088437471252;0.0013250730255894533;145.0;0.10551910994286391;0.03600016312370328;0.0012996572910633252;152.0;0.10534678579609379;0.035911303626397224;0.0012932342839931004;153.0;0.1053546135078995;0.0376235955680642;0.0014195737088968446;154.0;0.10659215682406896;0.04025398429057645;0.0016255540211817902;162.0;0.1097518821240177;0.04225253882222295;0.0017910735873605567;158.0;0.11277951987364951;0.04321900054503452;0.0018738991738387765;156.0;0.11460200453136002;0.036158037224232734;0.0013109375189114631;150.0;0.10393232878569647
0.05059690529588561;0.002564339065874623;162.0;0.11753597919503161;12.0;0.058574289285035705;0.003438174083669897;169.0;0.12234715246430697;0.062455584963133325;0.003909630531291698;162.0;0.12511933665401084;0.05757646002102875;0.0033217915750124857;160.0;0.12091631930465921;0.05543373912325535;0.0030789794844606633;158.0;0.11820665071852587;0.0581089941644979;0.003382497214617449;141.0;0.12165328915019685;0.0565488992265939;0.0032039731470836987;145.0;0.11914195573221209;0.04399828571404711;0.0019381900706476845;161.0;0.11261111787760272;0.05017797498676705;0.002521782086828884;151.0;0.11796319779330723;0.05485504749799185;0.0030103380242034127;144.0;0.11965678575127399;0.05816571570641504;0.0033839304887026893;145.0;0.12154168822687995;0.0579675739815604;0.0033594016783104644;146.0;0.1204867805521051;0.057862725523458565;0.0033479891096439476;148.0;0.1194489309534214;0.05946359865290571;0.0035357513941970276;150.0;0.11977702676749304;0.057784667844069514;0.0033386007195909872;153.0;0.12045735150950679;0.045035722140929005;0.0020316697927516875;151.0;0.11446554541921113;0.045114205617276706;0.0020269412252737684;153.0;0.10966953409181747;0.04459879560086269;0.001980053286138105;149.0;0.10853307784144085;0.045501513650919166;0.002062113573140561;149.0;0.1095822418909108;0.04662976720590345;0.002165799761570945;154.0;0.10997826554559029;0.05005499458329074;0.002497815221055962;149.0;0.11308359343038703;0.055709816123960615;0.0030971226901179852;147.0;0.11997212576695936;0.05377416737500794;0.002882186883253958;139.0;0.1135983718861864;0.04353929645972413;0.0018901826909319191;157.0;0.10877993565525772;0.04264280798651511;0.0018116652183260305;152.0;0.10267534987585548;0.04220740331153614;0.0017741606049669594;153.0;0.10062225556206697;0.041651682459249474;0.0017250338076721789;160.0;0.10056501728573697;0.04203494050234497;0.001759689541367916;161.0;0.10192250898502947;0.04186721323720977;0.001749219938866661;174.0;0.10369697892828156;0.042850785325955966;0.0018304771982574851;165.0;0.10571253858730784;0.043015648153139956;0.0018446145022362086;161.0;0.1081738899227977;0.04279122897338639;0.0018260695508567272;158.0;0.10272639308120225
0.07056873879770353;0.004996253311408095;169.0;0.12954986602683555;12.0;0.07560859269171862;0.005735391750566069;165.0;0.13024361990699132;0.08095792995635022;0.006575126998214021;161.0;0.13136930498508098;0.08379677881895914;0.007041723345601492;159.0;0.13330356556453546;0.08882817207256964;0.007906631364189788;154.0;0.1378085193007715;0.09470808821796778;0.008984103000879502;144.0;0.14277940814385867;0.09304658458910481;0.0086739704449165;141.0;0.1379303852950745;0.06804030029592437;0.004644612290533425;171.0;0.12585187883425492;0.09213472724202687;0.008511310303820711;140.0;0.13425324168367692;0.10781892251085363;0.011655748075959926;134.0;0.1400965052060274;0.11165940537734084;0.012499862490027705;134.0;0.14351885670451725;0.10578361965065049;0.011223160815013174;133.0;0.14094872055240493;0.09839103218103519;0.009710585421156135;140.0;0.13781605856272564;0.09492859803889582;0.009040898459564385;145.0;0.13714182509951434;0.08855601115540811;0.007867828391269815;152.0;0.13713109755025296;0.08195387442484948;0.006733889094646411;148.0;0.13045515168522984;0.06960048367582902;0.004855972381616527;155.0;0.12046251881426076;0.06957620050441173;0.00485489931558235;153.0;0.12049019941613999;0.07251070716297171;0.005272417886558918;155.0;0.1221896509380471;0.07614587821462755;0.005812093956041626;154.0;0.12369007301821569;0.0823019240392125;0.006785464694209846;156.0;0.12739169755019647;0.08851740544061229;0.007848964695861797;160.0;0.1326346076830048;0.08603221562152825;0.00741442195180932;151.0;0.12904965804670238;0.06473500988751939;0.004201201917592079;159.0;0.11861858620227975;0.07891333608761132;0.006245566734696394;151.0;0.12375916961169331;0.09092001893720864;0.008292696180147519;165.0;0.12890370612528745;0.09172422590798761;0.008440209798412342;168.0;0.12973246477653833;0.08107180671957091;0.006591251532942491;163.0;0.1250438305381102;0.07667661156100129;0.005889673758684031;167.0;0.1238135534481598;0.07695643202246617;0.005930803660646145;163.0;0.12421452772738814;0.07531493750784347;0.005679184359555268;163.0;0.12367510303271052;0.07230336716324877;0.005240228909469288;152.0;0.1199952360670553
0.0919543937406694;0.008482625604879824;155.0;0.15631013552987386;12.0;0.10093571219265589;0.010220581316478976;152.0;0.1590409438230698;0.10130680776492205;0.010296229344625355;150.0;0.15821792768185533;0.09982414185474785;0.009996806718662042;151.0;0.15612175011680615;0.10401685149860707;0.010854800099282372;158.0;0.15692424631469148;0.10960943023053309;0.012053269312160862;160.0;0.15975206551406523;0.10514234295463562;0.011091045169274075;157.0;0.15389190067702524;0.08328591319687417;0.006958776051357398;155.0;0.14891622620089115;0.11396347618154716;0.013030074937061547;140.0;0.15561567521017056;0.13209471489293928;0.017506072334806323;135.0;0.16120356195139943;0.13563419034032798;0.018456540184595326;141.0;0.16426431521903043;0.12715199826223364;0.01622001267769565;144.0;0.16157386205529609;0.11634468696771119;0.013580335045428635;145.0;0.15914110881742627;0.10978180052110147;0.012091444842197308;152.0;0.15910980884181689;0.1006546831384347;0.010162514161155316;150.0;0.15887283421525086;0.10259914941735801;0.01056012477808555;144.0;0.15149215576017647;0.09666773912272537;0.009346358332221702;154.0;0.14954467071822297;0.09930076301755662;0.009864891746183607;158.0;0.14981274686320672;0.10158093170813831;0.010328879431866084;155.0;0.1486888110889173;0.10185950930918071;0.01037593562862582;141.0;0.14748877979165134;0.10868053291747078;0.0118100490670211;142.0;0.14973531822986555;0.11628998234235405;0.013524371637167056;145.0;0.1550888428117881;0.11227333837306282;0.012602752851179592;140.0;0.15184869914565843;0.08401637833309432;0.007060891462028631;155.0;0.14469050906662673;0.10179732891240015;0.010380119532691438;141.0;0.14679954242158844;0.11332642748363417;0.012866677848251346;167.0;0.1530969802938942;0.11167809513393333;0.01249205408087368;159.0;0.15208047643698236;0.099407680946771;0.009899021342128911;154.0;0.14928677625828052;0.09612765574732854;0.009255252339302883;151.0;0.15058335534557285;0.09731559688936879;0.009491573833754733;155.0;0.1537175364797523;0.09496004585668959;0.009036764107863067;157.0;0.15259871887772797;0.09596980910657553;0.009223288978251074;132.0;0.14312541671968415
0.08704793748284402;0.007599246408675937;150.0;0.1576746211840498;12.0;0.1000620592726725;0.010042862856942442;144.0;0.16440471647671467;0.10113582138652873;0.01026039592280673;141.0;0.16249637462176186;0.09555598586795791;0.009156987065074729;143.0;0.15675056770728224;0.10024177799738965;0.010075906173546647;157.0;0.15442760885125725;0.10754338041443692;0.011597878913916443;156.0;0.1576511939420949;0.10025518509983597;0.010075544237705158;158.0;0.1524323870410911;0.07441104247130947;0.005551617918514411;150.0;0.1479393207227077;0.09088119016538128;0.008264858801836432;160.0;0.15075102851009134;0.10382800614320849;0.010786477703950113;158.0;0.15346607754686165;0.10897173303499075;0.011874963544688925;156.0;0.15605841297344847;0.10275700659002102;0.010570104836195315;160.0;0.15432325929159976;0.09585029045257014;0.009201719207373291;160.0;0.1539261520318912;0.09238049312912333;0.00855159498383859;164.0;0.15562973000593347;0.08781536143928488;0.007731142863066648;156.0;0.15754358941721938;0.08232788555712195;0.006791624848346924;156.0;0.1458277533708621;0.09520794268940048;0.009093778955274039;153.0;0.15872995493586992;0.09989805780470849;0.010012223253409485;155.0;0.15974647820144358;0.09915770352199832;0.009863228524861954;152.0;0.1563917155172812;0.09405150692398954;0.008872824133409831;143.0;0.15158886431158056;0.0975606438895571;0.00954482318260077;139.0;0.15214390278615944;0.10493474520778898;0.011034975589130608;134.0;0.15493696783963856;0.09899992492735538;0.009824179703669927;131.0;0.15018211116047553;0.07969180932448668;0.006371472667873392;156.0;0.15108504624090446;0.08817090172285134;0.0077995342731509475;138.0;0.14009182058218578;0.09415588487595913;0.008894242532192278;147.0;0.14199469229058187;0.09164707063288192;0.008426602082126797;142.0;0.14154917443764203;0.08520100466333366;0.007281158417556669;137.0;0.14362395379544377;0.08415577802115103;0.007098400370634581;141.0;0.1477548865988896;0.08526379163736396;0.0072820867348871695;141.0;0.15398979850352068;0.08096451261520017;0.006566861269785487;149.0;0.15460309496156296;0.08451026436063276;0.007165344055122735;134.0;0.13877010349112373
0.07884416675590598;0.006236735807278412;141.0;0.1547895816860149;12.0;0.09035179246592075;0.008190144639670759;135.0;0.16034847276042205;0.09275407956994706;0.00863062547665693;133.0;0.15803537097937018;0.08726594988421299;0.007638442595235708;135.0;0.15199809812428483;0.09228040457123526;0.00854041137703335;143.0;0.15174494499685545;0.10247525214385522;0.010531494486297128;141.0;0.16030203887288116;0.09712862473932776;0.009462698728784339;140.0;0.1556345785890133;0.06560987604866295;0.004318656987882241;147.0;0.14253828586957798;0.07151214206495875;0.005130777042036267;152.0;0.14368569986012392;0.08774028590280247;0.0077232398113039735;151.0;0.14894162236243982;0.09687770821621555;0.009415897568561527;150.0;0.15307980350833558;0.09003185560515749;0.008131796855624603;154.0;0.15011078643343834;0.0825929143131462;0.006843235229829344;157.0;0.1473484303010365;0.07953226275644565;0.0063457898334114944;161.0;0.147684260852034;0.07675262967830389;0.0059102087453517145;160.0;0.14846997815855367;0.060638607544434286;0.0036890842774815573;146.0;0.13553840081864602;0.07751291408128891;0.0060200820678887965;151.0;0.1564263954043812;0.08142195502684073;0.006645783014087179;154.0;0.16110078569001277;0.08051789030374143;0.006499220287676609;155.0;0.1591582857153379;0.0782207910528674;0.006128916960411216;158.0;0.15262725794078336;0.0840786023836712;0.007081020897126688;158.0;0.15176649313638474;0.09474651340815679;0.008985759164049508;152.0;0.15397955923294165;0.08839006247390184;0.007820472587711612;154.0;0.14798432638296258;0.06735485807290775;0.004548645278144919;156.0;0.1481461653765642;0.06949653405141427;0.004845461624348158;155.0;0.13749749824290927;0.07450174833544501;0.00556842520395193;156.0;0.13974976479877696;0.07374536389785843;0.005455735295064872;155.0;0.14123288031293132;0.07205428051829679;0.005208459079626623;144.0;0.143305290741173;0.07483796935000375;0.005619008951202573;148.0;0.1470827852156355;0.0779718119354413;0.006099166354366228;143.0;0.15206774449473992;0.07509697727103942;0.005657653581021081;151.0;0.1520765823313694;0.06289594014624747;0.003968789515295168;162.0;0.133798419595454
0.09537209547017632;0.009118528480881918;142.0;0.15994957786793562;12.0;0.10483965826609304;0.011020872541681109;139.0;0.16352594140320292;0.10155759568445691;0.01034613198794435;140.0;0.16026000618858052;0.09178377583207509;0.00845019340309082;142.0;0.15303486436142666;0.09008631619445057;0.008141948886553407;145.0;0.15214154244390768;0.10075986561808536;0.010185440782267043;152.0;0.16388078251929575;0.09705230604614998;0.009449863507765326;155.0;0.15950460717414158;0.07926077403110332;0.006295812196984229;148.0;0.14572222523814995;0.08000108981187844;0.00641394477424899;141.0;0.1423906773629293;0.09662155279958227;0.009350249313888255;134.0;0.15236654607558364;0.10608332947382526;0.011275153009719693;138.0;0.15757899456643237;0.09948928095746995;0.009918505900059549;143.0;0.1532761888145947;0.0916315476152114;0.008412831900590145;149.0;0.1501310829072619;0.08994432297539365;0.00810627800282631;152.0;0.15091440049020463;0.0885257974780829;0.007851634033812513;152.0;0.1507536445530731;0.06724606992438523;0.004530876528293826;138.0;0.13509109469954456;0.07826656949942244;0.006141596418054409;159.0;0.16061346971955548;0.08038729624039018;0.0064805303668895396;160.0;0.16521302201896704;0.07947685156021082;0.006331546565682817;161.0;0.16224232182925696;0.08145398720863532;0.006649933628555217;170.0;0.15655039208275914;0.09236000131333247;0.008546762629175947;166.0;0.15742764011832602;0.1083122851972569;0.01175233083496845;165.0;0.1652860567269999;0.10129519714670172;0.010277126937897826;169.0;0.15841888167629817;0.06466748871060167;0.0041918195415263535;161.0;0.14917090646642786;0.062275502683500815;0.0038844571075979475;174.0;0.13658324562905974;0.06489060816308423;0.004218456649130461;170.0;0.1388198822968025;0.06362370364683897;0.004052691695688165;175.0;0.13961633651850447;0.06211176859464882;0.0038610073599893904;162.0;0.1403877622125291;0.06808375696849053;0.004641309238246805;162.0;0.14616484409346892;0.0752969830896031;0.005677206404199942;157.0;0.1519228247894304;0.07534591183186257;0.0056853344477175265;157.0;0.15171615133705443;0.05796424609951618;0.0033681056057543925;173.0;0.13347662122666917
0.098622569512321;0.009757952483040839;150.0;0.16420126950835534;12.0;0.10888612348842362;0.011894696663286347;141.0;0.17071189326313224;0.10496748441097403;0.011054104129484014;142.0;0.1683756773959962;0.09647120173990417;0.009336927861046678;149.0;0.16165325966044647;0.09606428298890661;0.009258432338883116;146.0;0.15980008696587641;0.10952346138230823;0.01203464666881785;151.0;0.1708661649392742;0.1076888379211088;0.0116348224408442;155.0;0.1671924662317281;0.08441780124145927;0.007148979964969917;148.0;0.15305222318532213;0.08432855861962463;0.007131055226205874;143.0;0.14571510207052354;0.0954088691069254;0.009125497328878438;136.0;0.15288661798379363;0.10225187270954954;0.010483576301156485;138.0;0.15650546277171784;0.09988955500184003;0.010007500630634552;136.0;0.1544275965394022;0.09679661244139935;0.00939664353358005;141.0;0.15456929219450366;0.09715762485898206;0.009466766945596703;143.0;0.15849830434402856;0.09634008447966354;0.009306097808175665;141.0;0.16062607810997595;0.07500404334745814;0.00564038857873923;138.0;0.14070405149136583;0.08188719047246103;0.0067234772491474954;165.0;0.1591120528062848;0.08358029618484014;0.007007102428184545;166.0;0.16122889170471044;0.08125384139656949;0.006621639259577409;167.0;0.15791067680146698;0.0813693817400225;0.006636978410974364;176.0;0.1549027396987904;0.08919249492497336;0.007971523163696984;159.0;0.16059715556805151;0.10204613884976507;0.010432634033870264;157.0;0.17022545118350024;0.09551975421394471;0.009137601711706817;158.0;0.1640510180448121;0.06737827165583486;0.004551986050600146;158.0;0.14851718041142217;0.06378688386017724;0.004081818894297091;169.0;0.1385183756620591;0.0679265257784089;0.004629065357465305;166.0;0.1408192610301632;0.0673807264073151;0.004555003858013545;171.0;0.13946887135333003;0.06178891984004667;0.0038298807726597937;165.0;0.13782649145548065;0.06225977117950401;0.003886622257770647;162.0;0.14186020659524717;0.06914668124578015;0.00479428259861913;161.0;0.1501255518375972;0.06919157429489117;0.004802010608190231;161.0;0.15165779986377925;0.058798655983561245;0.0034673040005735504;162.0;0.13542822941749674
0.08737325145083742;0.007627117876004833;167.0;0.16617626657894524;12.0;0.09699174455264331;0.009405802642099555;150.0;0.17296182353956957;0.09520502182999512;0.0090553441741497;157.0;0.17214395232967536;0.09284585464163413;0.008608310190986538;158.0;0.1677579033734524;0.09853632606528853;0.009705344766728572;157.0;0.16570692267669748;0.11438853135289066;0.013087379325799389;161.0;0.17399620834207769;0.11405527531551397;0.013011810597136988;158.0;0.17075273140200234;0.07528261915650711;0.005661930834493907;166.0;0.15641341356853228;0.08359153478342192;0.006974929023948007;154.0;0.15280055209130064;0.09289185158628371;0.008619427283742858;143.0;0.15558429217267317;0.0971541749739312;0.009420726977474012;153.0;0.1585284491025806;0.09404525963005278;0.008819766686665903;146.0;0.15761757866497417;0.09047569832687799;0.00816812565583369;141.0;0.1578216738577774;0.08910887349462078;0.007928763524243956;154.0;0.16185582112168329;0.08571028775525413;0.007338373620253852;160.0;0.16188846106993793;0.07709702287285015;0.0059276578399308005;149.0;0.14806560514617811;0.07330915612841446;0.00539066226120517;156.0;0.14755500531399357;0.07506444246365411;0.005652144191468379;159.0;0.15017420652808938;0.07402473224727281;0.005496711834683894;157.0;0.14761694610943557;0.07473694032975853;0.005603684596376965;157.0;0.14555091753884178;0.0837614834146697;0.007039078994980333;151.0;0.1540772987194655;0.09591127913074697;0.00922917810825163;147.0;0.1657165480626425;0.08948097124601682;0.008033154272280369;154.0;0.15998269167061294;0.06394956528537808;0.004100252941415822;150.0;0.1423464593278564;0.06543564516673847;0.004294284642052771;154.0;0.13950743981279393;0.06979088339789168;0.0048861266154317275;160.0;0.14256622462113827;0.067180756293922;0.004526778591312531;154.0;0.14066659828800718;0.06294063675004086;0.003970143438234944;155.0;0.1382280558123272;0.06365363609445902;0.004059735869764519;144.0;0.14127374892635494;0.07137986624602465;0.005104155619257879;145.0;0.15057392366861172;0.07186390923649577;0.005171198386252535;140.0;0.15277313235931603;0.061595513746330786;0.003804937355733224;149.0;0.13631509151595245
0.11187016554961098;0.012555473053058907;161.0;0.18435799539914716;12.0;0.1247404969310481;0.015607420251653212;146.0;0.1905158548382011;0.12648314128406649;0.0160486051023048;151.0;0.1909248632922964;0.12113260234533031;0.014720825805143558;149.0;0.18390227835845266;0.12199489179481901;0.014930824278805458;153.0;0.17998461416857847;0.13241668788251262;0.017589406293789134;161.0;0.1876824448260471;0.12945584861555637;0.01680898562372109;160.0;0.18464778463380824;0.09611554717042259;0.009268330663687216;165.0;0.174429193368763;0.08982587402945967;0.008092823674807369;151.0;0.16658611898273284;0.099510265479966;0.009934192500543568;144.0;0.1704056456321242;0.10556002637015564;0.011179174937244544;152.0;0.1745848087995564;0.1019599192669636;0.010429800676712725;149.0;0.17465247201966788;0.10096597749626741;0.010227408582040503;145.0;0.17734835057886583;0.10570046782377442;0.011209134093028266;158.0;0.1852981990982685;0.10776899581030523;0.011652004337372585;167.0;0.18735067181542744;0.08318416541353862;0.006940883544517821;149.0;0.16269987039589193;0.06759282353779462;0.004583447050956175;154.0;0.1478188278212855;0.07012456983817453;0.004932951895167496;157.0;0.15220413606114291;0.06998861078937774;0.004913742534334027;155.0;0.14893622258520076;0.07185076021915271;0.005178932560878678;151.0;0.14363193619757622;0.08454174357375838;0.0071705580193162245;147.0;0.14949339922998797;0.10146800278308943;0.010329470176066103;148.0;0.16374693654959843;0.09481064800323269;0.009018498945141045;155.0;0.15813057346305529;0.06179256721940488;0.0038306271178367257;154.0;0.14132105478544377;0.06306978269833283;0.0039908324725773615;148.0;0.13273545211718615;0.06790380620330157;0.004626024698715497;148.0;0.13549034383899394;0.06799575387258178;0.004638437046883283;148.0;0.13651017801833967;0.0654660355938311;0.004299325592988529;151.0;0.1353661719814837;0.06860931136514446;0.004720922027101269;145.0;0.13782964666212918;0.07554081284317236;0.0057238031572379566;144.0;0.14634455248596664;0.07652450710705226;0.005874465642648068;140.0;0.1488574963507667;0.06241892860592975;0.0039089041288011715;147.0;0.13191082482554017
0.12049636652516205;0.014565422868941457;150.0;0.19606445918293594;12.0;0.13497784623366943;0.01827680612510117;149.0;0.2044722595846985;0.13464836056511492;0.018186690886426923;151.0;0.20364907314372208;0.12870713306735318;0.01661680826958656;153.0;0.19409926398994323;0.13039517771229775;0.017056509352981343;154.0;0.18622673233453818;0.14026177319765262;0.019735176234852797;154.0;0.19308488556918088;0.13628663084512635;0.01863195336937004;152.0;0.19060055073235047;0.10238665312387697;0.010514648113511823;146.0;0.1842388240564465;0.09519299277029279;0.009088268510649805;147.0;0.1719721316591977;0.10528775230781758;0.011116759065841385;147.0;0.1769793323638342;0.10948605774810362;0.012018287395143584;148.0;0.17863188377998193;0.10671254618548923;0.011415764076191146;150.0;0.17986167290116653;0.1065540686111774;0.011382921832702536;150.0;0.1841260874819051;0.1116141218683212;0.012490960299336683;152.0;0.19225907496597655;0.11314703337152716;0.012835869211163193;160.0;0.1962946126380507;0.08776928496859634;0.007722789058375797;152.0;0.1679061646265181;0.07050748251353678;0.004987284765201269;145.0;0.14888322575529545;0.07499783172959712;0.005642330896545637;152.0;0.15324733990025793;0.0761807155253416;0.005821729454521827;154.0;0.15138052852693393;0.07353809704225384;0.0054243942178126775;154.0;0.14625222082538802;0.07964975315800038;0.006362270917719249;145.0;0.1519672534710035;0.09296032788441218;0.008666811560348778;156.0;0.16543633254436604;0.0880978295227696;0.0077840898633140245;155.0;0.15868856920777144;0.06453996857136854;0.004178663078793401;146.0;0.14295069450094694;0.06932976362516206;0.004821416337429999;142.0;0.13324087830031708;0.07290034351480397;0.005331024453075463;136.0;0.13588459822497356;0.07094662974950637;0.00504925686818739;146.0;0.1353185368752772;0.07048884345350707;0.004984483271184361;154.0;0.13683134153422313;0.0724833623064566;0.0052701969922074035;161.0;0.13968042472089195;0.07755810951408199;0.006032104143898041;162.0;0.14605409199386804;0.07819219606217706;0.006130157997010537;161.0;0.14817781728002807;0.06865038206709058;0.004728294838503588;144.0;0.13195814071091727
0.08784244605312991;0.007741293817261556;147.0;0.16193254408402452;12.0;0.09762979936951624;0.009561617537068669;153.0;0.16846231947785986;0.09816232958721618;0.009667202731730357;156.0;0.1679372881974811;0.09919049762052436;0.009871000026957902;154.0;0.16379437700287322;0.10985807853265829;0.012108609023010374;147.0;0.15992788708405614;0.12084490662667191;0.01465081140625751;141.0;0.16389836005899647;0.11534164620478485;0.013343225399973364;139.0;0.16020371360473898;0.07642628546008305;0.005859831748016389;143.0;0.15237332943964937;0.0855804813920713;0.0073481498832400505;155.0;0.14873797875017755;0.09501281982219754;0.009057339841562944;156.0;0.15442679305057097;0.09798190375611193;0.00963231770318079;157.0;0.15589183173488205;0.09481117737076603;0.009018883453656224;159.0;0.15629157114169318;0.09272788312836915;0.008626950806622324;160.0;0.15746330849643453;0.09556815264621799;0.009162932350333408;161.0;0.16271655635563037;0.09456888514258978;0.008971407595327083;166.0;0.1644287196275858;0.07820327825064133;0.006135565295005075;161.0;0.1447343631238853;0.06490597279230569;0.004224846148213446;142.0;0.14423384956987056;0.06921898623341016;0.004805482818948657;144.0;0.14595986391751078;0.06920794386453225;0.004802704296431546;144.0;0.14419683064796138;0.06371303112537567;0.004068181539838009;146.0;0.1404185422193883;0.06260845630479532;0.0039262996996809975;136.0;0.1423704648812;0.06702745279522013;0.004498790677307363;152.0;0.14943256649105693;0.06326298409770963;0.004007693576322554;145.0;0.14318647677446938;0.060273679702465395;0.0036414938800116087;142.0;0.1440678673312654;0.06453091508858799;0.004175277403558907;154.0;0.13350185464621686;0.0666671307460672;0.004457071843451209;144.0;0.13559774678885006;0.06083883819255932;0.0037113120662355813;155.0;0.13416444377788808;0.06134652834165923;0.0037730269485660483;159.0;0.13698552806502898;0.06179023658122561;0.0038291613904759924;153.0;0.14016302853633064;0.06628150068632789;0.0044064057704568;154.0;0.14394838940009663;0.06781299351096683;0.00461255115352097;138.0;0.14453495555289156;0.06240666996823918;0.003903764284326829;144.0;0.1304827610196655
0.0768758246027947;0.0059280250023517715;151.0;0.14073324826510478;12.0;0.08344156055359474;0.006983851185084552;153.0;0.14480917426306003;0.08772567468112784;0.0077175191932536994;155.0;0.14566501916950256;0.09136592031283679;0.008373185033012114;153.0;0.1462180024131321;0.1066102424156955;0.01140190979581475;153.0;0.1524569811574057;0.11858616960357013;0.014107114589956058;149.0;0.15914982040670037;0.10954252900441493;0.01203838376591316;150.0;0.1536219890799302;0.06756910960321749;0.004578775950217182;152.0;0.13309725346580673;0.08784089414219434;0.007740283400500701;145.0;0.13954972312206845;0.09988332603044493;0.0100047445376251;146.0;0.14606471803990415;0.10043869162623502;0.010113816893289078;150.0;0.1462813210707143;0.09071679362624564;0.008253541749031678;151.0;0.1425545605635119;0.08442890767167475;0.007151551440033448;153.0;0.14024773781597255;0.08715041503658336;0.00761662653585532;159.0;0.14471361994196597;0.0867085615232136;0.007537078111039416;159.0;0.14712274205149042;0.07726773505976663;0.005989807201324633;148.0;0.1343550320821176;0.056036659681725706;0.0031502288393658383;158.0;0.13768788879950425;0.057667712804205955;0.003336306215644393;157.0;0.1374678520019724;0.05708685507252161;0.0032692667922114877;152.0;0.136759019631414;0.05490573127491999;0.0030244161655591114;155.0;0.13389932536474297;0.053721967872910475;0.0028954809945418683;138.0;0.1316251979929495;0.05521608229763355;0.0030587740404436404;147.0;0.13380577981117953;0.05293032414033681;0.0028107692741471163;147.0;0.12972389007307322;0.05447626289261956;0.0029773355545485076;151.0;0.1387645391021668;0.052316436343737865;0.0027458707838892544;162.0;0.1279584263586562;0.05280299550061629;0.0027968371133342885;159.0;0.12731676665287975;0.05027716940108985;0.002535869600553232;166.0;0.1277562158413304;0.04972640046698476;0.0024804608346015227;159.0;0.12872814942233393;0.05034638528626949;0.0025429255259579718;146.0;0.1310029358629351;0.05460116554362555;0.0029906042639590655;146.0;0.1349942461952505;0.05791977347869459;0.003364241602627945;123.0;0.13585035563938885;0.053831590820282355;0.0029073024275159537;149.0;0.12612817830205553
0.08503285294973198;0.007254193303123484;151.0;0.15892727284213662;12.0;0.095923987784637;0.00923142740344794;151.0;0.1640540905655006;0.09483675421787194;0.009023430083098381;147.0;0.16242181912270245;0.09335284887794046;0.008742546972312231;143.0;0.16017773549256567;0.1085774153569974;0.011826232456833794;151.0;0.16611416826461606;0.12448619465319564;0.015545031539514049;152.0;0.17489450842548673;0.10931282632947474;0.011987308291352364;155.0;0.1692165636834291;0.06709205415719517;0.004515428101210068;148.0;0.14548148328472116;0.09309834680183375;0.008694754705850422;140.0;0.15331290998820846;0.10878185597215752;0.01187130372968905;138.0;0.16156209240616412;0.10971828302914434;0.012074940120793413;142.0;0.16128849200162462;0.09796035793120222;0.009626333418817254;143.0;0.15795778832193355;0.08775528800140575;0.007726180445880078;145.0;0.15665697384155622;0.08519077902559956;0.0072807451748519835;146.0;0.1594733597869438;0.08044261707375863;0.006489554002686913;147.0;0.15954052736725355;0.0814404640893282;0.0066542356006951;139.0;0.14677915769767733;0.05497747403385095;0.0030165967874632733;161.0;0.13257315131119346;0.05675964055088839;0.003216455966546176;160.0;0.13371550340986857;0.05731513584220347;0.0032784057809243125;157.0;0.13383197487405044;0.055427536351055594;0.0030645854085647505;160.0;0.13043505404220185;0.055848963379784185;0.0031112887800769386;150.0;0.1306220470363261;0.05904958347766269;0.0034841610955037143;150.0;0.13565091707139504;0.055287258805361485;0.0030524100211972993;153.0;0.1292541876590855;0.052560934599095104;0.0027556890869536053;156.0;0.1313576108688687;0.05025394448638298;0.0025179800213675366;144.0;0.1205451146447782;0.05600439269968193;0.0031316515078009853;150.0;0.12440666058599002;0.05455993383022475;0.0029728409103981627;154.0;0.1244172682804346;0.0523853727583806;0.0027367333975587466;149.0;0.12197164986750797;0.051934919786367134;0.002691893178944914;148.0;0.12270466070095776;0.05415763455026634;0.002928264143319841;158.0;0.12569106174196787;0.05522298145143808;0.003047480315310041;146.0;0.1281308331386961;0.05208667872913552;0.0027088529490237627;146.0;0.12086427290734762
0.08644163682519655;0.00748586164587235;159.0;0.171863933043549;12.0;0.0996055632323284;0.009935029411844633;162.0;0.17888262869175042;0.10040819492823475;0.010097685084673323;151.0;0.1787132345579243;0.0968976715795891;0.009405572698213604;143.0;0.17398324067441048;0.10970796704649408;0.012067671028543605;147.0;0.17731716967415362;0.12780065424279982;0.016375863495832584;146.0;0.18547364643345043;0.11115497913344813;0.012386262218219986;152.0;0.1784207518144871;0.06710185456638719;0.00451089119032298;154.0;0.15814931707201882;0.08190153233176743;0.006729872138116338;148.0;0.16002688352890623;0.09669424255167294;0.009380383072858302;135.0;0.16778566993518976;0.10066864641512506;0.01016562918513945;133.0;0.16953413562390532;0.09353677669680553;0.008775900836776606;147.0;0.16725401926759692;0.08842551351752673;0.007844493853806174;150.0;0.16870297070348023;0.08705765466677924;0.007603824383749858;148.0;0.17261584078860345;0.08082937181077282;0.006553345977405116;150.0;0.17197291975772167;0.07290137696823908;0.005331867603017085;154.0;0.15487078815905095;0.06360464381275295;0.004058749198463438;149.0;0.1380640285178635;0.06867373535708839;0.0047314796725951135;143.0;0.1439013170421202;0.06781342459054229;0.0046136268902026946;147.0;0.1419102901638693;0.06321774416788974;0.004009524619094319;150.0;0.13551766777812826;0.0638583724161756;0.0040912181120801895;153.0;0.13448214930917435;0.06739371399992024;0.004556766684728996;152.0;0.13829893065265542;0.06228110713678603;0.0038916168495964853;145.0;0.13062336480181183;0.05739574369381645;0.0033048878144486564;147.0;0.1325061019988471;0.055621784765966645;0.003103946306512707;134.0;0.1201565458231506;0.06305137353988496;0.003988463390337847;137.0;0.12622726613804836;0.06243257174669613;0.00391061767843214;138.0;0.1256318009451053;0.06022131122811212;0.0036385095169228603;133.0;0.12336184550774966;0.059251867871897734;0.003522083484215748;137.0;0.12388285489107086;0.06024323108686307;0.0036407449102966727;145.0;0.12627435558107303;0.06035706282995362;0.0036549545049029443;143.0;0.1284033093294355;0.05254974183956596;0.0027704856060338104;138.0;0.1202671024297465
0.10563101155421492;0.011194304330635237;166.0;0.18669146484383659;12.0;0.1273249579139145;0.016262484055975558;169.0;0.19938803516919304;0.12356889716470641;0.015319169826757609;164.0;0.19826358096167426;0.11074221937422925;0.012303520739318773;154.0;0.18871510665762856;0.10814365368152615;0.011727164871719516;163.0;0.18385850825077232;0.11902617022306428;0.014206544459392421;161.0;0.18810848387193121;0.111469808869022;0.01245754092896813;164.0;0.18192074211649978;0.07737085350444399;0.006005619866468628;162.0;0.16488716658509645;0.08274589814606045;0.00686653105888211;154.0;0.16274014419870278;0.09696490460679699;0.009429063038096399;144.0;0.16711451138938666;0.0969056992861538;0.009416981221786762;144.0;0.16846235395968923;0.08674350071461351;0.007547305260841378;158.0;0.16465564711260824;0.08050010881614215;0.006500948547127687;155.0;0.16502037067266395;0.07887604861493827;0.0062418623068529674;160.0;0.16816308526008006;0.07412986780801208;0.0055132486425219914;156.0;0.168378211465628;0.07173759372438318;0.0051618897828954015;161.0;0.15860258899852583;0.07687408777748594;0.0059207381371143425;143.0;0.15722376259210274;0.08146866890642704;0.006647947381794382;138.0;0.1640987712586651;0.07969985105870643;0.006362212976242612;143.0;0.16116357922161403;0.07578874226502122;0.005753769531784308;143.0;0.15394357513008264;0.0790779935869762;0.006264954948881106;143.0;0.15145933450490048;0.08572411366415117;0.007365085216153732;144.0;0.15453756992716422;0.0797979680725367;0.006383284306707957;139.0;0.14845464487837065;0.06522471786843845;0.00426166029560518;148.0;0.14582241041083036;0.05855301535134056;0.003433341109961403;132.0;0.13060454470194685;0.06073968832163523;0.003690340915930477;132.0;0.13125491257444571;0.06090909021304391;0.003710738311827323;136.0;0.12923608093447495;0.06091186773017181;0.003711747879867018;129.0;0.12842839244767656;0.06364543420861976;0.004054471543172657;134.0;0.13052848919502136;0.06657610495799215;0.0044366639395168874;135.0;0.1340276314260706;0.06455078468407219;0.0041709668710925634;134.0;0.13333223770635858;0.056092324321620465;0.0031507469215835164;133.0;0.12947213149620365
0.10625858537181397;0.011326367891032722;165.0;0.18358067905459147;12.0;0.13376743978443387;0.01795040173623586;162.0;0.2000108239372325;0.1221970243614961;0.01497927832698091;162.0;0.19593524551460056;0.10321195771473855;0.01068735571732848;158.0;0.18494468847910875;0.09429940802612734;0.008920455303578014;175.0;0.17799606576773366;0.09916151879413479;0.00986399931467097;173.0;0.1806776512788585;0.0979353779016951;0.009619215478364355;174.0;0.17750117452953407;0.07429935781644625;0.005538191101693418;163.0;0.15979966254548378;0.08556391352222784;0.007343157549171172;155.0;0.1599694962779299;0.10002448507323859;0.010035188015608766;146.0;0.16555353764400804;0.10234677309273538;0.01050778469755702;145.0;0.16871965892329657;0.09098717180830508;0.008304815552642333;155.0;0.1640165296699441;0.08103165081576391;0.006587520593010706;155.0;0.16109235826675197;0.07781895821897149;0.006075371027459219;160.0;0.16272149312619646;0.07422322107478985;0.005526432824173366;154.0;0.16281303801483987;0.07358208725883189;0.005431358858510444;152.0;0.15535764483239697;0.08999486275373009;0.008125380789447223;153.0;0.16642401570272775;0.09703690605342721;0.009446932181195255;151.0;0.17222537527316029;0.0937832847734759;0.008824034620316565;152.0;0.16792846177031287;0.08764974150089527;0.00770747298799639;151.0;0.15889897453040888;0.08852822725418598;0.007862147013292832;152.0;0.15401852894375517;0.09160976227230287;0.008419510383541735;156.0;0.15601729875031076;0.08471287340396111;0.007198686522563482;158.0;0.15132576798728986;0.07331598756752859;0.005392391910624739;157.0;0.15469977377655392;0.05922425594905363;0.003518659605133192;145.0;0.13158670398996428;0.06129329251955344;0.003768243357784372;152.0;0.1324937527755518;0.06189352119653793;0.0038419029577374617;153.0;0.1318902194130845;0.06019032950546569;0.0036342251925179396;148.0;0.13107100969389177;0.06126627764482413;0.0037656771546837166;153.0;0.13281064593861797;0.06386473200093837;0.0040920517828898564;151.0;0.13697240596509364;0.06321857895640894;0.004009672529203534;147.0;0.1375729964123354;0.059086536028026375;0.003502256589145895;149.0;0.13038691576013767
0.08330442486456562;0.006958589049774553;156.0;0.1765040828533863;12.0;0.10637314505869838;0.011348359800953172;149.0;0.19138473409014053;0.10489961747255047;0.011030262130157982;151.0;0.19509085038173699;0.09346724680715501;0.008750614530161557;151.0;0.1871495197840199;0.09273821741493357;0.008608693453986137;165.0;0.1815730263131607;0.10201384272493284;0.010418056915657295;166.0;0.18464722321454202;0.09965384263471823;0.009933357369955013;164.0;0.18179070538644376;0.0643588233951443;0.004142864300007523;157.0;0.16066113885228106;0.07803210451663715;0.006103313309099081;141.0;0.15876443915162372;0.09026703184082048;0.008169494660052701;137.0;0.1660925288510623;0.09368639898107702;0.00880257663334362;136.0;0.16921437929770755;0.08554642245898465;0.007336893206712311;142.0;0.1649427255513076;0.08017026008183609;0.006441258291836025;141.0;0.16336642612639832;0.0806692782833673;0.00651699675165599;140.0;0.16611252121330325;0.07656403913358974;0.00586600878700857;135.0;0.16527133731324417;0.06798459501468007;0.004629723133345536;140.0;0.15364272862639772;0.08488180925474068;0.007223090235774222;139.0;0.16019865279091666;0.09086757271959996;0.008279954756315005;135.0;0.16369961684611717;0.08723860752414048;0.0076303709492484394;141.0;0.1592394101537789;0.08180799152655681;0.006708484269329387;143.0;0.15242315571204004;0.08142008583423059;0.006647755720674663;145.0;0.14943042894442995;0.08383792714196207;0.007047860892986738;149.0;0.15318535844184006;0.07761550749224935;0.006040660925558097;153.0;0.1469161369186907;0.0723999299139866;0.005256437422522192;144.0;0.15301088776681665;0.062428934674886596;0.003909872707539543;147.0;0.132404942919045;0.06799456683677436;0.004638435902930456;155.0;0.13519651104694907;0.06863006519933773;0.004725396188780204;154.0;0.13527217630294222;0.06428990643657377;0.0041467583043150475;156.0;0.13549831401882323;0.06358021553728707;0.004055694637216236;162.0;0.13711995106378358;0.06689227432941326;0.0044889972068805324;160.0;0.1425496742320512;0.06875172821260342;0.00474229353303968;150.0;0.14594017099086856;0.06064529519588002;0.0036893257271635657;150.0;0.13165603745716797
0.10228795363673909;0.010493247702424985;171.0;0.18587057249024394;12.0;0.12436052794713223;0.015514737925870633;162.0;0.1984486576480896;0.12379996919994204;0.015376446737152185;156.0;0.20096276466992868;0.10947184346617744;0.012022908715209274;157.0;0.19130840506052513;0.10344875705748005;0.010732645769629935;151.0;0.18454661551690812;0.11235698611183276;0.012654168123087322;144.0;0.1903039184273014;0.10899667050637994;0.011901325810138998;144.0;0.1856122687391954;0.07971381570708701;0.006373311135005179;161.0;0.16587510830223812;0.08620656552720096;0.007448200825365988;146.0;0.16342173181485264;0.10225455111746948;0.010480657022405502;149.0;0.17300373581261222;0.1038722573397245;0.01081877035781029;152.0;0.17521777282472994;0.09522085022331858;0.009087177804035246;149.0;0.17135246400969226;0.09150933541415719;0.008392566511383138;148.0;0.17144657283395484;0.09334066215540786;0.00873034952499191;145.0;0.1755972912498678;0.0912159810406508;0.008336140667636462;142.0;0.1749708188539019;0.07451169738511851;0.005564121768245773;150.0;0.1576513758513141;0.07640378224561245;0.005856617138305613;143.0;0.1572746079778059;0.07959465338055677;0.006355149535433016;141.0;0.16067926154062276;0.07681382291044005;0.005918953086676591;146.0;0.15720437245468918;0.07289501393814209;0.005330835980013047;142.0;0.15122066571185147;0.07430351002521972;0.00553729219151178;139.0;0.15054865793565342;0.08093996850260585;0.006568417987508279;138.0;0.15634297156287844;0.07508937820799115;0.005651623044748899;142.0;0.14905757232642042;0.06673670729832329;0.004468085517884306;147.0;0.15021399388344503;0.05989204631136937;0.0035978388112571334;148.0;0.13426566498218273;0.06616413487446855;0.004388546332725777;147.0;0.1361603645381214;0.06617276358398282;0.004391788849890042;144.0;0.13482359276644298;0.06230499569374034;0.00389375455440459;146.0;0.13509713300691484;0.0631066177608288;0.0039951099081298284;155.0;0.13675174806880813;0.06772925516067017;0.004602298038160405;159.0;0.142697748874787;0.07008689477224998;0.0049283007354104895;142.0;0.14796302993327012;0.05738142032369034;0.0033028757976395116;154.0;0.13424378617801863
0.11593532295306637;0.0134849059322312;173.0;0.19473034788873622;12.0;0.14048354672040267;0.019799101141892605;164.0;0.21129276714200418;0.13261756597611188;0.017641733151099903;160.0;0.20587952602426618;0.11571232193533156;0.013432874982542616;161.0;0.19302815923408;0.10899003235167916;0.01191782320686864;146.0;0.18716031551936932;0.12017750819853973;0.014489864015647582;134.0;0.19807367704752196;0.11733829843195963;0.013813529174251589;141.0;0.19362423215085425;0.08880388561510885;0.007910785183822053;169.0;0.17407932650599067;0.09019776147761617;0.008159696933833466;162.0;0.16836463916800687;0.1071264251446878;0.011511876222542851;158.0;0.17989391547405398;0.10896869291690339;0.011909151528074324;157.0;0.1811528784543932;0.09880132034525113;0.009790159507872228;161.0;0.17577603072242565;0.09268612213792066;0.008616483814529667;161.0;0.1741408620563532;0.09253582110330533;0.008586103895649021;159.0;0.17711625461415273;0.09020623555377917;0.008159608201309;162.0;0.17702459483240404;0.07843585765487357;0.006169478516039388;166.0;0.16283795550165095;0.08560460929255646;0.007346456222668057;139.0;0.16251466478318977;0.09016006185846491;0.008150339348438514;141.0;0.1664144561775339;0.08824379459354004;0.007806596733575381;146.0;0.164497789142604;0.08263274316840413;0.00684332338413517;141.0;0.15747765415359233;0.08378323126729201;0.007033827774693151;146.0;0.1569130311445325;0.0904847145678903;0.00820726962076735;150.0;0.16455256737690482;0.08248285719479773;0.00681938628050462;152.0;0.15640594996090804;0.06967563676025709;0.004865070873366803;137.0;0.15350942537414383;0.05990617856068096;0.0035920421591131377;155.0;0.13326644291766082;0.06228592772471372;0.0038821931535998914;156.0;0.1344244189650704;0.061028854256055205;0.0037248652665400504;150.0;0.13388007892022216;0.058123886435056754;0.0033784726664521604;144.0;0.13516986325763705;0.05886458106514543;0.003466657797905308;150.0;0.1370110504492365;0.0645586156921063;0.004169619900024144;148.0;0.14342334251683675;0.06845268568500078;0.004690376347680603;137.0;0.14859846500022886;0.05917347917175372;0.003505864643027524;159.0;0.1336984375714926
0.09599694527742271;0.00923483092803592;145.0;0.18577451397593817;12.0;0.12023956703016388;0.014489631927119854;148.0;0.20498976076676376;0.12223838445774006;0.014977836589710823;147.0;0.20534430124994857;0.11170806051907853;0.012503355810707766;143.0;0.19293755709830768;0.11250736959370554;0.01267580484513542;136.0;0.1867939345597791;0.12874260183672775;0.016588263560339028;135.0;0.19754336347925136;0.12548204027500334;0.01575262363275701;145.0;0.1927306595663938;0.07686840834064537;0.005916243743588642;152.0;0.16802249322328405;0.08315077376204033;0.006910753617575235;157.0;0.16084674169818197;0.09355714522337878;0.008757151252893525;157.0;0.16799816898824274;0.09427619360335436;0.008896487672325515;157.0;0.16820321915823178;0.0864419031766244;0.007472525238428843;156.0;0.16375533057523864;0.08041894081068872;0.00646868498113176;150.0;0.16222297088305068;0.07846745525998969;0.006155330429398356;152.0;0.16532191354168294;0.07465895243223099;0.005572428798234615;156.0;0.16585012749149328;0.07450251327516952;0.0055471305588415684;158.0;0.15828340615771247;0.08000222863485712;0.00642119845111511;148.0;0.155347163550722;0.08326620243847098;0.006954973533308551;148.0;0.1568770229202961;0.08278888070691022;0.006875616695844633;152.0;0.15551170370151543;0.07997918672732846;0.00641753401856005;150.0;0.15041312574533006;0.08705155393726367;0.0076016234321169066;149.0;0.15228562447719146;0.09677248463178503;0.009388464387523023;158.0;0.1600735168830427;0.0863666479975393;0.007476935757485767;159.0;0.1520482066318926;0.06375873945652599;0.00407800998216527;138.0;0.1470301817826572;0.056798520384478676;0.00323634850249986;156.0;0.13192429590810628;0.058155116057564654;0.0033923685174708823;159.0;0.13408321833038273;0.05729174660657931;0.003292328164440816;156.0;0.1341223443781103;0.05426223052483398;0.0029536046735030254;151.0;0.13549189472859252;0.05503874885112226;0.003039091019483235;149.0;0.1379081671607568;0.06052759379616433;0.0036755534110630046;148.0;0.1431782849606723;0.062442677855201675;0.003911659327331965;149.0;0.1449698912869017;0.0554621880152994;0.003086037515354098;153.0;0.13177402324674728
0.06493650132854874;0.004227571046541725;156.0;0.14173683885077243;12.0;0.08026627194774849;0.0064609676428488165;151.0;0.1530592591773013;0.08774672092015812;0.007722490686977394;155.0;0.15628904509186364;0.08330246856455455;0.006959084372034168;152.0;0.14970267201123114;0.08781228932410574;0.00773169326883018;159.0;0.14608300352399284;0.10243629316505093;0.010515990608711353;156.0;0.15265795230904733;0.09999646933745648;0.010020566677218042;164.0;0.14834470122132679;0.05610257197807185;0.0031532305275275194;157.0;0.1304532225801022;0.07197238060330959;0.005192629734967627;160.0;0.1319503638176449;0.0806763063247041;0.006524144206283377;159.0;0.13688382451779582;0.08390657905463475;0.0070593515973438265;156.0;0.13770333889951095;0.07681709539712418;0.00591488482009869;155.0;0.1333461034401982;0.06996417988836486;0.004907075026538522;157.0;0.13058888384752165;0.06713905560937916;0.0045197789655071225;160.0;0.13445626547988723;0.06388325748978353;0.00409181800195449;162.0;0.13594573886815636;0.06346230356566525;0.004037174773918172;158.0;0.12935272347638674;0.08736148936303087;0.007623992050431645;162.0;0.15895721255826567;0.09531937477902755;0.009078676888587095;163.0;0.1608840594024583;0.08953617864473316;0.008003457263757573;168.0;0.15669506605621236;0.07675905114327525;0.005882722166597647;161.0;0.14928069264988209;0.07676969931599095;0.00588864118421105;155.0;0.14858586790549902;0.08501187091098983;0.007230563965811118;152.0;0.15269386525144116;0.0735509544557687;0.005409296730481194;157.0;0.14399473306569333;0.07531837917210864;0.005661897907347597;154.0;0.15046840583579854;0.04677006782159841;0.002188913888410713;156.0;0.12957823288944606;0.05085981839319404;0.002592839161256907;157.0;0.13131160730938235;0.05290270484673867;0.0028013228001288483;155.0;0.1318517960239736;0.05067650534564558;0.002567347181979268;150.0;0.13125740187962598;0.05250897417400416;0.0027557230708135944;147.0;0.13363986358214577;0.05688770759847271;0.0032281286851182684;148.0;0.13788461055987242;0.05520254420878939;0.003036532109103312;156.0;0.1368903826560796;0.04607613140198534;0.0021189307014231984;154.0;0.12891494929317668
0.053190602648929074;0.0028378493946293985;167.0;0.11397180434001536;12.0;0.054980686172720714;0.0030304012083122757;160.0;0.11545878206830672;0.06026905507400974;0.003641818826639333;167.0;0.11526602417923595;0.06386757106102656;0.0040892988999778985;167.0;0.11679696823214865;0.06994302288963143;0.004900986520752142;173.0;0.1186653694083586;0.07594907763622569;0.005777692918958464;164.0;0.12119524528617351;0.07141908376089631;0.005108870969944271;165.0;0.11812408653495159;0.051877810376813646;0.0026992287875125557;167.0;0.11216408689748764;0.06797950643549173;0.004627909847327852;163.0;0.11714419011613585;0.07940181846191931;0.006317458729632252;154.0;0.12262883520246126;0.08571778239126893;0.007368461280618072;154.0;0.12409624606274261;0.07880704095533479;0.006227274074131015;165.0;0.11964043644303858;0.07120954812327217;0.00508372399317325;171.0;0.11618430586899246;0.0677101118280006;0.004595570450257205;173.0;0.11785132205517335;0.064236176220792;0.0041373673066473545;168.0;0.1191587907979422;0.05816468125824853;0.0033857721161714765;162.0;0.11344143402275239;0.08976008475177254;0.008077806421732602;139.0;0.15840629238154708;0.09886755392701095;0.009804384547735112;142.0;0.16242387730420108;0.09156139905838129;0.008408595917614769;151.0;0.1572437284774991;0.07752519362068147;0.0060281680323269506;150.0;0.14913703776263404;0.0733966576583735;0.0054017183474697915;148.0;0.14738159695976488;0.07896189496316132;0.00624951117064283;138.0;0.14981675919493032;0.06997535949309672;0.004907727861721528;146.0;0.14270619245569208;0.07889134401104757;0.0062404497445622915;141.0;0.14951475813851295;0.05679476889109377;0.003233946594168197;142.0;0.12929369951955416;0.0636910860908707;0.004064848060671278;143.0;0.13095561136505246;0.06491084553597551;0.004221398811417802;139.0;0.132065988182476;0.06310987268952348;0.003990399946784447;141.0;0.13179355407404597;0.06443581856129352;0.004162846789099538;138.0;0.13538941960419604;0.06825416855031793;0.004672452949147469;132.0;0.13982492191711302;0.06352374346550828;0.004046625893963458;134.0;0.13595812918808675;0.050937953346057684;0.0026014449757811114;149.0;0.12628180498082625
0.07959216695532581;0.006355532044271889;160.0;0.14817171080573632;12.0;0.08318064029883676;0.006941331648049081;167.0;0.1504701743316453;0.08643160104390821;0.0074948321744914195;168.0;0.1478749841177566;0.08822931535443403;0.007809710559509995;166.0;0.14658682716916122;0.09203520979226613;0.008497919195148848;162.0;0.14644629557725886;0.09404934820724359;0.008874176831145395;161.0;0.14833215582635456;0.08577427013830956;0.007381258803444908;155.0;0.14214822110859923;0.07403175224572973;0.005498381522921186;157.0;0.142203721160965;0.07775082585870464;0.006059417193064883;151.0;0.13953479809770378;0.08448397012127536;0.00714944185912175;144.0;0.14086395863152498;0.08857922013971241;0.007861267730846175;148.0;0.1413928598932073;0.0866868342109533;0.007531268422663671;156.0;0.14023476130136864;0.08544194200005731;0.007321569745335764;156.0;0.14296206096616346;0.08738178918028573;0.007659341254009717;160.0;0.14785469442133453;0.08564109804933522;0.007358201049579474;152.0;0.15269860993469148;0.07164092548641994;0.005146943709843517;152.0;0.13780706187626401;0.07592850183886925;0.005784061312105526;153.0;0.1468211787793169;0.08218102683204612;0.0067758442441993106;153.0;0.1515148797583139;0.07908900143323402;0.006275076213726628;157.0;0.1468584861656265;0.07332450704647603;0.005394095131221349;161.0;0.13968991958044244;0.07604905604794338;0.005801153834896452;157.0;0.13890752022531258;0.08229804611483571;0.006790824455929564;151.0;0.1433825296711089;0.07531972480282542;0.0056881316174227595;157.0;0.13715187819955116;0.06225889840517562;0.003888050264221613;155.0;0.13594553778622895;0.06530194792014622;0.004266459155117726;148.0;0.12599084596674706;0.07388534241220851;0.005461139649657179;143.0;0.12986679419125116;0.07456770115731463;0.005563084192002445;139.0;0.13039590876065796;0.07252158672392466;0.005260457386867887;144.0;0.12936094637068563;0.07105684341855636;0.005053172259197248;141.0;0.1320541891960612;0.07314033709754238;0.005358736772652925;141.0;0.13577644036493403;0.06743801003940852;0.004558275808742277;140.0;0.13263412486987622;0.05781321847566207;0.003349387427876568;155.0;0.1236679806080339
0.07915308660142605;0.006281563265299137;154.0;0.15687344280836685;12.0;0.08309433234292267;0.006921056678867503;153.0;0.1584284253407921;0.08743538284418848;0.007660775832370001;155.0;0.15702281959259795;0.08921895228079949;0.007974365978521811;152.0;0.15608349217805959;0.09502691306670591;0.00904165872389549;152.0;0.1586512512558423;0.09855067401686941;0.009718926454885063;157.0;0.1633155147891337;0.08832350625299126;0.007810543804349182;156.0;0.15318324755717158;0.07257119152029642;0.0052764680475641135;154.0;0.1478660524766952;0.07168597219019256;0.005151499023590185;145.0;0.1429889375979872;0.07713630701161114;0.005966327787046578;142.0;0.1441556226429746;0.08047325852130006;0.006490673321354851;144.0;0.14572364146388686;0.07938624584523131;0.00631366084318631;149.0;0.14611624501445153;0.08055958810142304;0.006499784090798501;143.0;0.15056290150482243;0.08512661489944416;0.007251078806604804;142.0;0.1571020106625596;0.08830784807606591;0.007800989036678736;148.0;0.16398944374663577;0.06828611996374714;0.004673774687504039;141.0;0.14207389569703668;0.08724424252643377;0.007633632156810671;166.0;0.16105238666606778;0.09410564502247692;0.008881987162436013;163.0;0.16809236891109114;0.0925944636318383;0.008598585160837832;166.0;0.16535108762996112;0.08879800442936905;0.007907376894265065;167.0;0.15848803690406035;0.09547192331926128;0.009141700221173927;158.0;0.15799221699526458;0.10483591169129776;0.011025477132716356;159.0;0.16211717837009385;0.09463782373872413;0.008984678562933649;161.0;0.15340458033988472;0.06861818253640496;0.004721189358991513;166.0;0.1468694180748236;0.06858774016324404;0.004719268943301194;152.0;0.13707227820218776;0.07414598420530438;0.0055152409283241895;144.0;0.14127871777008863;0.07428873128875857;0.005535647022395809;140.0;0.1413732643951231;0.07030271175054405;0.004958353103000568;139.0;0.13753356459789795;0.06608662908132938;0.0043813586762491445;145.0;0.13720675805509622;0.0671726207990292;0.004526505850710341;146.0;0.13988312596736663;0.06560270735754462;0.004316711338037367;147.0;0.14016624600251879;0.06619328314048734;0.0043954789087381815;157.0;0.13626570976138
0.07885929844061781;0.006237934421276801;156.0;0.15694086306104837;12.0;0.0918660716133648;0.00846447567017519;143.0;0.16227370782834205;0.10018117310867787;0.010064959095012909;143.0;0.1643002619370279;0.09779531044760177;0.009592452007916535;139.0;0.1626741009513994;0.10292151590291616;0.010623452301294033;142.0;0.16683421361582865;0.11160769527484542;0.012492691061021827;145.0;0.17483760229544937;0.09716417002235046;0.00946255104843515;150.0;0.1638056564782663;0.06812142104055068;0.00465341377581771;160.0;0.144729789625417;0.07005659158290815;0.00492248939002104;148.0;0.1439885589550968;0.08141346157444473;0.0066475069140248646;139.0;0.1489632322322019;0.0865426183528062;0.007511793528232408;144.0;0.15005128129903567;0.08270900474341313;0.006862073707767179;143.0;0.14899660975150125;0.08003465175235956;0.006425378546392255;146.0;0.14954846331989424;0.08101917029021831;0.006584840734318902;146.0;0.15386151168262574;0.08479146772230459;0.007211077226247815;165.0;0.15920931938613492;0.06143717190207799;0.003785868369564205;154.0;0.13970831224030136;0.09683263597699406;0.009407132243816601;154.0;0.17233246575098674;0.1037503378558769;0.010799198532770142;154.0;0.1781239586250715;0.10121390547826616;0.010277690467476744;161.0;0.17590885027031408;0.09534019885117054;0.009119388111266193;162.0;0.16910452480854982;0.10015455462072008;0.01006300961408367;153.0;0.16690853329882993;0.10966754758207706;0.012063877174401825;160.0;0.1704020065531064;0.09819457172202797;0.009672561013585605;159.0;0.1592253587205193;0.07616855725284034;0.005820561462585289;151.0;0.1590653508812803;0.0652114705694015;0.004265937509761528;162.0;0.14323256207308116;0.0700989492331475;0.004929911447082472;156.0;0.1469043085032165;0.06964834672115527;0.004865817547488175;153.0;0.14728483691465574;0.0646759034451144;0.004193204884246259;149.0;0.14433336290691728;0.061615403314087255;0.0038053863109390297;154.0;0.14505581283003557;0.06304152459861191;0.003983752347237561;148.0;0.14925041168378786;0.0665272110037775;0.00443603503881341;153.0;0.15222938288295393;0.06349027683191372;0.004043609924902092;167.0;0.1408679242480077
0.0810081245133083;0.006583747395112245;155.0;0.1598041688881647;12.0;0.09843043965875001;0.009719748537260695;138.0;0.16898109669249656;0.10351881692199247;0.010750515205152395;133.0;0.16831871287720696;0.09680400557789676;0.009401618872461248;132.0;0.16150713611470416;0.0990618089748068;0.009845296194706145;131.0;0.16272206804413192;0.10939075736437107;0.012005209518051202;130.0;0.1707108001570097;0.09661226982223257;0.009363767545717373;135.0;0.16290097595146427;0.06578114103208348;0.00434129007632168;149.0;0.14478249706020016;0.06686732948791992;0.0044850073372472285;149.0;0.14535379568741605;0.07799695776851749;0.006101331369995242;138.0;0.15050427048865195;0.08277292085025818;0.006873221395170559;141.0;0.15208197748868305;0.0785086466548845;0.0061834681898041335;142.0;0.14983120580273643;0.0747725963108791;0.005609213853762484;150.0;0.148284713113703;0.07426781208564175;0.0055332447453700076;151.0;0.15145890668814802;0.07414229682344019;0.005513996293274459;161.0;0.15317389776114068;0.05764407669024885;0.0033336241063057306;165.0;0.13962908476253286;0.08194222224835235;0.006702794917338146;149.0;0.16888399646007948;0.08802420927391012;0.007735547587703436;155.0;0.17153412061051468;0.08476887108633675;0.007176515228960185;156.0;0.16743209932499092;0.07556147044238495;0.005703045983747386;154.0;0.15851856907449427;0.07482821710893318;0.005592740421813964;150.0;0.15371790395004542;0.08222576561662381;0.0067633972430233705;157.0;0.16249174606586864;0.0740531518103794;0.005484539797472292;156.0;0.14835179109746022;0.06640249741832331;0.004401869992390155;145.0;0.15601417522927394;0.05761352163534933;0.003321844492533387;162.0;0.13497994667312768;0.06657190210738934;0.004428797580889819;161.0;0.13846280021506485;0.06751306490783222;0.004557997572020949;161.0;0.13878235536706196;0.06250046961483867;0.003908532325870172;160.0;0.13767587595936662;0.06354091904501422;0.0040415590844540515;157.0;0.14092140847809614;0.06577257227111656;0.004330548682672648;158.0;0.14475629069861964;0.06579881497970891;0.004334775664295707;162.0;0.1474726103558769;0.05252524654706018;0.0027616995987720006;155.0;0.13103915335894506
0.07867040858718001;0.006205898241288983;148.0;0.15695905376825459;12.0;0.09305744493067361;0.008686926270265417;136.0;0.1659748103069505;0.09210527381465779;0.008511068679881146;132.0;0.16332687141582497;0.08525912849572345;0.007292685313047174;136.0;0.15624964976865185;0.08640157256846472;0.007489631785548377;142.0;0.1562917190252345;0.09303230699818466;0.00868319543477183;140.0;0.16211343821375354;0.08486083133488397;0.007224882449375338;145.0;0.15523304112469252;0.06390442411705162;0.0040953193201747175;141.0;0.14270072647497337;0.06894637087758607;0.004765960930012841;153.0;0.14261997115388406;0.0800513655725396;0.006425824132411979;146.0;0.1486101368246516;0.08509401411388538;0.00726143219843383;144.0;0.1518316943251899;0.07857158343585904;0.006190239750811518;150.0;0.1485494113193132;0.07421788942856958;0.005524337329995841;155.0;0.1474681304251466;0.07419807828324104;0.005522228596802426;157.0;0.14984503851062947;0.07300627394088675;0.00534642520501823;155.0;0.15121650348737586;0.06244671971997728;0.003909837265291638;160.0;0.13876573381744453;0.06506826193827946;0.004247705230915827;150.0;0.15588318629319042;0.07294676448186893;0.005338552114140181;156.0;0.1606506091655441;0.07175634218876266;0.0051657892161882475;148.0;0.1569167078444387;0.0632373724282914;0.004012033367660453;146.0;0.14658615113329856;0.062429030254702984;0.003910077163750521;146.0;0.14334188051295008;0.07021621183810815;0.004946456754335852;151.0;0.15248787708805853;0.06411726341143067;0.00412427708098101;150.0;0.14204906994418265;0.053844101497523396;0.0029067108789118516;136.0;0.1446547995951039;0.05658315575145755;0.0032061852908380505;143.0;0.13158322546453402;0.06535920617729402;0.0042794581368062095;145.0;0.1349373634308258;0.06770502369328688;0.004589796478840234;145.0;0.1368041883151917;0.06353787777735276;0.00404335043548921;147.0;0.13567876575266763;0.06467873456583001;0.0041931819553379214;149.0;0.1387362721019429;0.06775086189784574;0.004603134202009042;156.0;0.1426335535215936;0.06370068903447607;0.004068278470991022;148.0;0.14239254423213804;0.051870749575095215;0.002697447495163359;138.0;0.12811998545423522
0.08568058156832545;0.007364894985880002;140.0;0.16112914917390422;12.0;0.09987153059074327;0.010006891649147193;134.0;0.17130106429449588;0.09814203919504219;0.009663326270457788;134.0;0.17196657413773528;0.09282675841611217;0.0086445322944485;136.0;0.16681526299512933;0.0963589529645851;0.00931523625029563;141.0;0.16466287139825975;0.10402832795557768;0.010857233414324676;139.0;0.16766146089720133;0.09478116953193093;0.009012291839269212;147.0;0.16053774341191562;0.07250912036526508;0.005273475312745477;137.0;0.14775528027799506;0.07827840801920981;0.006134842970952993;151.0;0.14844381379599106;0.0882385621389149;0.007796527722043053;150.0;0.15552641043063242;0.09084769122156205;0.00826351567420643;148.0;0.15678334790446125;0.08552133622826368;0.007321279086738901;148.0;0.15288124824426114;0.08348162871871129;0.006978614914504375;150.0;0.15274912735752424;0.084219347094894;0.007107365485933948;156.0;0.15542114200418242;0.08106582108743404;0.006588618969781449;150.0;0.1577059775938642;0.07235260542004981;0.005242819030073431;148.0;0.14323641109711505;0.0698960768308319;0.004901424288280286;151.0;0.15328599037926632;0.0785173602527938;0.006185327879128694;149.0;0.1593460492434832;0.07664743319833088;0.005893958090423444;149.0;0.15552964151625423;0.06776947166502933;0.004607702032843858;150.0;0.14588871371982737;0.06478373537983437;0.00420933481062992;145.0;0.1428712388243421;0.06832423918728898;0.004680216363149194;143.0;0.14685900886773995;0.06318957680342849;0.0040022707766100415;147.0;0.14140990729217012;0.0580660743860139;0.003382763711884426;142.0;0.14329107642597266;0.05403036426816677;0.0029287263036031023;152.0;0.13783463570745882;0.05816214479904404;0.0033938974107180888;148.0;0.14106895360760444;0.061873412742118404;0.0038406976902777444;148.0;0.14215197399874824;0.05917152162425676;0.0035124694013776462;148.0;0.139675575707253;0.05885265755822706;0.003474745570213237;148.0;0.14072471407093368;0.06250747627292398;0.003919430908386659;150.0;0.14590212051171172;0.060455238498950424;0.0036663922077876648;148.0;0.14571442713074328;0.05253746425851424;0.002769199439739694;149.0;0.13446917821570292
0.07510085422811898;0.005655979823005463;148.0;0.15752191831063958;12.0;0.08797434734187344;0.0077635292695683285;147.0;0.16696786818135168;0.08927647502633006;0.007993975663812087;148.0;0.1692563485911799;0.08716807994515002;0.007622691974577142;148.0;0.16459526431035923;0.09501315997003607;0.009056413826904676;146.0;0.16390660931403495;0.10599869095438919;0.011272421162826438;144.0;0.170343121504486;0.09818310650783683;0.00967142112478196;148.0;0.164974832011443;0.06407866506595525;0.004114847099604597;146.0;0.14548527214723062;0.07478742637135749;0.0056070280252006255;145.0;0.14600931255024638;0.08496720694719966;0.007235208996130654;144.0;0.15285644820973754;0.0860205698026927;0.00741891137631571;137.0;0.1540928652757718;0.08076299538986072;0.00654143538610349;146.0;0.15108880005785202;0.07912488257088279;0.006280345023038431;149.0;0.15224218923454563;0.07998275294298433;0.0064177490095662796;150.0;0.15633116040269654;0.07543778387685403;0.005707382509492014;145.0;0.15958232271737138;0.06797974123794079;0.0046318466156966805;141.0;0.1392358226994414;0.0798703385829378;0.0063959022940616285;154.0;0.16421322438700914;0.08488020155545112;0.0072173959227639925;146.0;0.16717931435110486;0.08294084580631561;0.00689074120250575;152.0;0.16291665230251537;0.077054548502324;0.005952262058251861;151.0;0.15556978910684915;0.07658360593329254;0.00587832314478155;144.0;0.1524207121898975;0.07862626860992869;0.006198122930934825;140.0;0.15255353891534154;0.07368820076283557;0.005445969389670057;146.0;0.14805169846334945;0.06859113507740697;0.004719552039893627;157.0;0.15287848281712546;0.06351372776526297;0.004047140018357813;143.0;0.14379287309905708;0.06336332277776838;0.004027669366536976;140.0;0.14652852638167127;0.06323942177013238;0.00401229960855418;140.0;0.1463870977235279;0.06125852833352519;0.0037647902002005025;143.0;0.14510949397425255;0.06351410126606936;0.004047103700850905;145.0;0.1465161853112547;0.06916267497538157;0.0047987172179476695;144.0;0.1520636381110752;0.07097414225796672;0.005053792828987002;152.0;0.15320050452178224;0.06127852483367956;0.003767333866226369;142.0;0.13938812073221332
0.07568573716030653;0.005745026112653961;157.0;0.15190178537412946;12.0;0.08672743199709693;0.007539091544431614;162.0;0.16133232630142924;0.08674998206477902;0.007540765569430697;162.0;0.16415353321005594;0.08339966824292833;0.0069717889805285685;160.0;0.15924594769515008;0.08660228941123499;0.0075195296687319635;159.0;0.15822279339879528;0.0947310759362033;0.00899618079824966;158.0;0.16514450438421296;0.09066764014359177;0.008243067774803908;161.0;0.1625126434988631;0.06274990300921549;0.003948827389252894;158.0;0.14128048313529248;0.06725412699755778;0.004537787521420029;155.0;0.13747422043138097;0.07842287869689123;0.0061701849489133945;151.0;0.14371881642828452;0.08211932079887943;0.006765424940293573;140.0;0.1457112116599316;0.07692261010655962;0.005936114894562514;159.0;0.1431831915188561;0.07498542676872408;0.00564088793289547;160.0;0.14361055869861047;0.07663644617396037;0.005892264841665837;153.0;0.1484475505637011;0.07439918682130196;0.005553321690679619;144.0;0.15154127445073223;0.06079525678531159;0.0037079525336666725;152.0;0.13226064237805216;0.07579662943840168;0.005762676386349297;165.0;0.1637982859541866;0.07904992246290826;0.006269210922925199;162.0;0.1664568778204008;0.07780801612025127;0.0060738679318800455;162.0;0.16307196873370092;0.07425650262484731;0.005531635971315953;156.0;0.15615737603659188;0.07658642472914223;0.0058843985282009455;151.0;0.1538326012591769;0.08082299385986783;0.006553410939789354;143.0;0.1542486839920817;0.0747646544252414;0.005606578093455136;148.0;0.1490888364499716;0.06279256251400467;0.00395274708630903;160.0;0.14989174864281835;0.06557538076981774;0.004309872892357176;144.0;0.1368723107737158;0.06575531822560085;0.004334831848052401;149.0;0.13842623339266927;0.06308081306816264;0.003986797822333027;148.0;0.13942468191793145;0.0603228775190589;0.0036459772761939574;146.0;0.14097305708230665;0.06226431823900441;0.003883945220550026;151.0;0.14339299767733835;0.0678137575216334;0.004607938546550117;153.0;0.14993728033863862;0.07001304308916904;0.004911677976962525;156.0;0.1526069675681992;0.061217565766691136;0.0037563749545027735;143.0;0.1331292472707888
0.06253716934680811;0.003922188228854424;146.0;0.11649870857810549;12.0;0.0708374916615011;0.005033153780592569;147.0;0.12370960591001659;0.06958527365445699;0.004857411283449007;148.0;0.1273219907628461;0.06581667981209076;0.004344738643091069;150.0;0.12446320698205841;0.0666284117706534;0.004451252045907401;153.0;0.12371447944540503;0.07377089880200965;0.005455017062238045;147.0;0.1274850643088947;0.07127912790200952;0.005094374435738928;147.0;0.12619139228185616;0.05198358718553167;0.0027106973368005017;150.0;0.10948588210756187;0.05049229444532462;0.0025568032444353898;146.0;0.10723768383631846;0.05646490486196293;0.0031982332507809763;142.0;0.11195199735240662;0.05942265475654499;0.0035414969827221687;136.0;0.11235965383685377;0.05693198881711245;0.0032504182577553207;148.0;0.10953546316432072;0.05629894721692368;0.003177491056441691;144.0;0.10761840322062897;0.05783148581087306;0.00335173471552972;139.0;0.11031884245113667;0.05768528032374087;0.003336451282717072;137.0;0.11150392939968537;0.04760306887202167;0.002272666330585373;146.0;0.10368517446365859;0.05994646503071607;0.003596875584731872;161.0;0.1391901509831429;0.06264599713169844;0.003924878201538877;161.0;0.1431144731290598;0.0628168267658771;0.0039465912491255155;155.0;0.14151712151642068;0.06384946810956792;0.004079986856632856;155.0;0.13773173441060185;0.0721799512714207;0.005214870452413292;151.0;0.1382177775569939;0.07582624480218912;0.005756082098513775;145.0;0.14035421845311877;0.06633168268449285;0.004407445697308011;146.0;0.13430459245398174;0.048871819198030596;0.0023890414814819795;157.0;0.12776908305814672;0.056491282919094325;0.0031962355827781144;147.0;0.11737480821636619;0.059363625168949705;0.0035257488199295826;146.0;0.1183335465919761;0.06092531592778234;0.0037124215399556657;149.0;0.1184814575617592;0.05780858143497099;0.003337604192628139;147.0;0.12034490593189703;0.05770699837015025;0.0033245810560507344;149.0;0.12224489356848518;0.05994612767188995;0.0035881211726723405;158.0;0.1269471345958172;0.059021965200404876;0.0034776475604509625;156.0;0.12866396034634783;0.04924828872693745;0.002431629397443378;148.0;0.11466888918552812
0.04192723414562703;0.0017633554847667654;147.0;0.09258218502544056;12.0;0.047492648869406025;0.0022620828687915304;147.0;0.09546575921021189;0.054812467302115926;0.0030122423787574955;147.0;0.09782726288298473;0.05936755787575031;0.003534416801733228;151.0;0.10038763473716159;0.06435075910394893;0.004152915123485044;158.0;0.10598634110967581;0.06979985506525949;0.004885732196935371;149.0;0.11137951436536273;0.06763865886434144;0.0045893672655306925;149.0;0.10869672198166114;0.04086362297481618;0.0016754389442856965;155.0;0.09111804977675149;0.060033544303064415;0.0036158760918155635;150.0;0.10425738331235003;0.07112744886420913;0.005075782505137563;144.0;0.1129896819144517;0.07740921527489524;0.006011250437695033;144.0;0.11659807115853958;0.07641544370963986;0.005857796674169841;145.0;0.1142121184917159;0.07574820416329359;0.005755487823459333;141.0;0.1143970849785022;0.07354480688483263;0.005425053727391586;140.0;0.1177927714169627;0.06282393625393776;0.003956683667320567;140.0;0.11495511265346073;0.054917144134366595;0.003025921387682783;149.0;0.1005121902870164;0.05887009303945227;0.0034745609163013597;150.0;0.123420806843603;0.05744147551557677;0.0033083387730476785;151.0;0.12375845080017898;0.05887618647409678;0.0034752766954029893;144.0;0.12486368410806675;0.06691905817970288;0.004489520254907745;156.0;0.12739975184687222;0.08210279912630325;0.006755652478752154;157.0;0.13329746683718144;0.08813416704136962;0.0077840148653011;155.0;0.13825846989656368;0.07816569586865048;0.006122092143035422;158.0;0.13283426558520198;0.051927160676168344;0.0027047819268622266;147.0;0.1193355068254736;0.06928428810700182;0.0048144155975246615;151.0;0.1251687889680309;0.07929328499847388;0.006307276607614649;148.0;0.12991246050013308;0.07764270304508732;0.006047928875060878;152.0;0.12519363781831697;0.06991887355227967;0.004904464166696781;155.0;0.12128910444455662;0.06424763075302235;0.004141206051760619;156.0;0.11925130594150697;0.06238887838626843;0.0039050925658880246;158.0;0.11943288752376575;0.058923058567651225;0.0034828436742006513;151.0;0.11719970254307564;0.058446719042053175;0.003425405810749603;157.0;0.12089346384818138
0.06847628927260863;0.004702273660795348;158.0;0.14011893069761602;12.0;0.07496749250078287;0.00563559083286856;158.0;0.1458992134149021;0.07983267964669595;0.006392017948113131;154.0;0.14506881772913222;0.08532999064347874;0.007304142908449351;150.0;0.1453013911824612;0.10113330256577466;0.010260667413227034;148.0;0.15306719851490808;0.11658875842898687;0.01363694694998159;142.0;0.16336207704173752;0.10681944910560368;0.011447496662453737;147.0;0.15644631214313254;0.06262112833936881;0.003933265528136653;157.0;0.13272351173654184;0.09873366501079558;0.009777493619704392;154.0;0.14594172347552667;0.11711660041885313;0.013755557255235955;150.0;0.15875165243967684;0.11934902527057752;0.01428662160855549;147.0;0.1619379206056495;0.11087881948127147;0.012330951211277329;149.0;0.15515016130761183;0.10530723404492436;0.011124044971350106;148.0;0.1518583993363232;0.10183047736989602;0.01040195654842071;142.0;0.15355832191886631;0.09019737851222283;0.008160690831316837;145.0;0.1497913902886221;0.08542665086489973;0.007319905060377271;151.0;0.1383323420330879;0.06668199157725348;0.004454792420095829;150.0;0.13625650217485893;0.06529147827514176;0.004270018077359873;149.0;0.13641667499170154;0.06608044557185323;0.004373723715580272;146.0;0.1352053209007198;0.07154986286124952;0.005128537402983551;152.0;0.13429478190524247;0.08345359514994849;0.006978196042917147;152.0;0.13803625579385095;0.09145126877452427;0.008380700346482204;153.0;0.143582269101868;0.08570361194800451;0.007361725362295111;154.0;0.14050917276613964;0.060791903949891424;0.0037054045863803295;143.0;0.13374254270302277;0.07942769830744202;0.006319460616453482;155.0;0.1366370401213064;0.08739300731625686;0.007652655385717166;153.0;0.14098040409723223;0.08268018051296594;0.006844781474874409;152.0;0.13798786332713497;0.07521854225335799;0.00566050986916822;160.0;0.13473708251102662;0.07320100887247198;0.005358036716081485;163.0;0.1368162008251905;0.07405963482633414;0.0054851603983142325;162.0;0.13851540152440375;0.06925690480076858;0.004796658745888558;155.0;0.1362608793824122;0.07029679042626726;0.004948051321154374;158.0;0.1314204159013851
0.09478997490625493;0.009013022159400148;156.0;0.16289347181710323;12.0;0.10720748736281678;0.01152907526209139;155.0;0.17081077281930845;0.10545945994830633;0.011152557981113996;151.0;0.16576684450003343;0.10348465741348731;0.010736554560826367;149.0;0.15933743840213613;0.11367667440684832;0.012955702384181363;148.0;0.16027347941587627;0.12442142171601941;0.01552235366799271;137.0;0.170266522539823;0.11333927420952376;0.012880052576252202;139.0;0.164912338960189;0.08418603301232029;0.007101800682849039;153.0;0.15117594645099244;0.11514131075392886;0.013290056009206314;151.0;0.15934318076905116;0.1347080694046603;0.018194828706633186;154.0;0.1692619610287122;0.13397552302839097;0.017995508909539697;147.0;0.17035455987254175;0.12068364601126791;0.014599638966116638;153.0;0.16217233481680543;0.11273487767276325;0.012738080973912993;152.0;0.15797405759131783;0.11116382364531113;0.012383998922383354;147.0;0.1601448011427425;0.1063408971330646;0.01132972778176699;145.0;0.1600876115648241;0.09776262478004837;0.009575846493248424;147.0;0.150624209398118;0.07804726681567585;0.0061032155967117845;148.0;0.1534357493961283;0.08156427184237452;0.006668824665426755;144.0;0.15511877585265377;0.08055294621627865;0.006502061179452496;142.0;0.1515111646311286;0.07721138723812489;0.005972348030638867;145.0;0.14619755333120482;0.08000497213004353;0.006408493495882286;145.0;0.14745276429115234;0.08495870692109464;0.007231878982732408;149.0;0.15083579668442074;0.08071432787319598;0.006520587097155739;143.0;0.1458113013549842;0.06880289924553057;0.0047431560143833965;145.0;0.1445869223768458;0.07685330442435068;0.0059125338972454;149.0;0.13173560405375315;0.08019914312572198;0.0064421850941651405;146.0;0.13280000493447794;0.08136828187352148;0.006636961196092305;151.0;0.13532272574124157;0.0765411702614321;0.005871558332698613;161.0;0.13515033232725793;0.07820197443410556;0.006129721063123898;167.0;0.13983621828622278;0.08174886229105857;0.006697017520374851;164.0;0.14320259372610294;0.08012023846553624;0.006430742479189429;159.0;0.14474287644760073;0.06871600149671951;0.004723806994394361;148.0;0.12756980035839247
0.10675297696175381;0.011407475765887945;143.0;0.17234256044225235;12.0;0.12270938926225587;0.015059398267486607;141.0;0.18115203309531572;0.12039972418703396;0.014494606180109481;138.0;0.17444559864645257;0.11369844985878388;0.012931277864217985;144.0;0.1641684320253424;0.11246426234926601;0.01266058044537287;154.0;0.15953618622460217;0.11483405751405762;0.013201748873611323;144.0;0.16704029154808392;0.107485869254615;0.0115687536818954;144.0;0.16410091936779728;0.0922428949584698;0.008520789624447063;149.0;0.15711326279192084;0.0981514395229131;0.00965236526469734;165.0;0.15645916701227358;0.11144401395654539;0.012439602963816796;168.0;0.1634288634280556;0.11404735453810483;0.0130277783451524;168.0;0.1658469098686716;0.10538317326231536;0.011119628880746229;170.0;0.161063555840696;0.10052939315858916;0.010120255036405831;162.0;0.16034402582981852;0.1001712414603806;0.010053846498881764;159.0;0.16355366795782164;0.0990474656799911;0.009828113529239605;146.0;0.16517973799437866;0.0872651305095208;0.0076273085744597135;154.0;0.15078161562587383;0.07333390071542652;0.005395094487795681;158.0;0.15251271460254023;0.07653630962921971;0.005875848078211366;164.0;0.1520924984632121;0.0750084070738947;0.005643313924954464;163.0;0.1495208187262212;0.07200375068707389;0.0051999304416796245;161.0;0.14733897976624727;0.0774993249399453;0.006023980188931104;160.0;0.15207392739851933;0.08910081283983952;0.00796189811127379;153.0;0.16076366267591774;0.0822168558210644;0.0067811329496542515;149.0;0.15224136749618444;0.06207495747806932;0.0038657945990241984;163.0;0.13996052427117528;0.06489950064212265;0.004223692103119524;161.0;0.12928450776489187;0.06869126679033209;0.004733012376253333;159.0;0.13047343951453744;0.07178520241709671;0.005168403078860846;172.0;0.1322439669612995;0.0677275774937584;0.0046009644907889415;173.0;0.13215854920736214;0.068344851702427;0.004685702168736183;179.0;0.13548980003309294;0.07233735889373136;0.00524968175429948;168.0;0.13953132634584844;0.06978103245406159;0.004885310953272549;163.0;0.13804145116696748;0.058366894262980216;0.0034140188852889047;159.0;0.12676439182391794
0.10673968616928069;0.011430709397840971;151.0;0.17342563462253016;12.0;0.1221765774134421;0.01497593750883977;146.0;0.18314238735785668;0.12218159592344817;0.014977276642847108;148.0;0.1786538841964741;0.11671080333639464;0.013664959464274208;148.0;0.17012482970692036;0.11716046129132614;0.013761810495469725;154.0;0.16659448410683567;0.12368493464910067;0.015333636969283805;150.0;0.1728673992856383;0.11646318662101411;0.013596817779671259;150.0;0.16746608078190692;0.0884648378445801;0.007850565167136885;154.0;0.15469843232484826;0.0870910490102174;0.007606318221086783;165.0;0.1493940428910706;0.09461767542523204;0.008980197962492942;162.0;0.1558948927156736;0.09523190979040203;0.0090975698678926;167.0;0.15769469392911523;0.09004775899281253;0.00813271164292392;167.0;0.15536868462499037;0.08735872427695933;0.007652928052470271;165.0;0.1558217756676876;0.08840556299947148;0.007838477027312768;162.0;0.15987367640577932;0.08725011210182687;0.0076360078119328415;159.0;0.1601352089600744;0.08198303296291841;0.006739126977135497;157.0;0.14457317007524673;0.06581222057378278;0.004344177613035858;158.0;0.14166166699095864;0.06620921834554234;0.0043965770156922;166.0;0.1410796951147607;0.06567020697711473;0.004325751935951761;169.0;0.14066112581136025;0.06912160799300336;0.004792564991259669;159.0;0.14296664228071831;0.08277768566843333;0.006873444300762188;154.0;0.151985465673865;0.10129895977562742;0.01029332979753136;145.0;0.164802402219075;0.09171837057111581;0.00843826416136988;142.0;0.15577457162083438;0.05780127363168186;0.0033516518659719398;167.0;0.13364364395721406;0.05321741910415419;0.002839916724844072;154.0;0.12531303656493847;0.057095482638579595;0.0032652241299115136;150.0;0.12707024776374423;0.05921823610337616;0.0035123042913575583;156.0;0.1277405298221873;0.057464752690746405;0.0033106402087929665;160.0;0.1281459937599897;0.05956769045693493;0.003557760758476952;164.0;0.1318919581980772;0.06403927107920798;0.004113673426398947;166.0;0.13639283509544145;0.05938767763942185;0.003538016212113669;160.0;0.1346457891921696;0.05029054346538897;0.002536106637059211;148.0;0.12391656229518835
0.1015205804146377;0.010323189806085981;160.0;0.1677581837054996;12.0;0.11441531774252925;0.013112954113265336;154.0;0.1776050723481231;0.11274856699314022;0.012734468187661866;150.0;0.17512342165173803;0.10710720508329342;0.011488898154757473;148.0;0.16738440291054746;0.10769431500743741;0.011611947440128147;152.0;0.16178018757267018;0.11612963811334547;0.013499540375801967;156.0;0.1679923458434172;0.11113217821769883;0.012360852654508347;155.0;0.16482378875608847;0.08514885007955131;0.007259871451932761;157.0;0.1520461912012283;0.08434762644587078;0.007131521366715774;148.0;0.14747855549690206;0.09198114028049197;0.008483013618591871;148.0;0.15284815694771162;0.09093386671523282;0.008291965287814078;152.0;0.1531804289020982;0.0864883834755836;0.007499503681444712;151.0;0.15180991904726066;0.08608572089808587;0.00742797833656658;154.0;0.15468933826102552;0.08984741020792347;0.008092952212223632;152.0;0.1616862255684771;0.08904032970169212;0.007944613388661035;159.0;0.1630842896954624;0.07817166890975276;0.006124678999288586;146.0;0.14295549393749005;0.06536033093670177;0.004282874326877612;156.0;0.14465252534498607;0.06783919806002081;0.004612570489750171;151.0;0.14706284282182142;0.06750327638927264;0.004566732950792629;153.0;0.14773938837432268;0.06870771290131487;0.0047318007355620535;154.0;0.14811618337343535;0.07975138882896785;0.006377462990447555;148.0;0.1549755002349593;0.09551729119734041;0.009149912812741223;149.0;0.16637459745520602;0.08370889048898264;0.007028209957217324;149.0;0.15713477210874566;0.055858014620758976;0.003124434442951939;152.0;0.13343957911476725;0.052149051168405784;0.0027261260419992675;139.0;0.12800058455843305;0.05755874470246007;0.0033203627569804643;142.0;0.12991902940141156;0.06037875253593592;0.0036540013991539265;143.0;0.13096912784238435;0.05735760521924634;0.00329884847906476;148.0;0.12962656626485144;0.057764035103235224;0.003346282920310572;148.0;0.130780877487132;0.06278961429772392;0.003955256184587533;156.0;0.13482085951473816;0.060520018377151444;0.003674349017305636;148.0;0.13650508954597998;0.05021062475392142;0.0025275536187671197;136.0;0.1270215119019615
0.1001978868088537;0.010071601642021472;151.0;0.17695636968211337;12.0;0.11567153243949194;0.013423348749934819;150.0;0.18637215178298291;0.11463770028202507;0.013184700585058074;146.0;0.1829472263394347;0.10468646696160579;0.010994402123108694;145.0;0.17499011003194578;0.09811260443174336;0.009657423952026432;149.0;0.1681313551591597;0.10556054758281776;0.011179443000635092;150.0;0.17496651835048072;0.10006048560971398;0.010044769680340326;157.0;0.1719796544389269;0.08224341928200826;0.006783925060696922;149.0;0.16161111626020683;0.07352167630803647;0.005423189218789882;151.0;0.14776105140775206;0.08294537873744605;0.006902757378517883;156.0;0.15200235268986473;0.08403461794534149;0.0070853144536146264;159.0;0.15309288028196763;0.07836747037737149;0.006161136792531718;158.0;0.15128887065905297;0.07696264199522863;0.0059419674611336844;160.0;0.15553318830445925;0.07959567306911502;0.00635453808898816;159.0;0.16123941538941955;0.08056246850507838;0.006508755641067421;159.0;0.16434363419724127;0.06685633870038608;0.004484200210661927;147.0;0.14516563239865782;0.06502674806978664;0.004239483214328421;158.0;0.14419179431571788;0.06527055396373181;0.004271278459861851;151.0;0.1464772799546644;0.0645679564701853;0.004179456289253078;154.0;0.14564567294306816;0.06611739606351796;0.004382407231380251;161.0;0.1441987309052127;0.07596370349076327;0.005784429069788559;161.0;0.14818296403865056;0.08985871665818793;0.00809770662097828;159.0;0.15817176351902693;0.07889660768220791;0.0062403153967987846;160.0;0.1497120063718141;0.055582038133030955;0.0030969333365033925;157.0;0.13244283392464318;0.05206796507641074;0.002712135896501793;161.0;0.12776097300034275;0.055473461303755724;0.003069848402290879;163.0;0.13038977591469642;0.05536187996435379;0.00306224051389287;156.0;0.13207866102377677;0.05388723535569077;0.0029024552087513556;163.0;0.13137754446881467;0.05534551913798651;0.0030600750096811584;163.0;0.13326821114900836;0.06219276334038608;0.0038663796013847698;163.0;0.13829433516573866;0.06085128960313993;0.0037032386714411563;161.0;0.13819607927799038;0.05022944441598751;0.0025202374202585595;168.0;0.12555508293441284
0.10023836049898774;0.010074412693901089;142.0;0.17577593049200668;12.0;0.11267753675337137;0.012734523280896385;149.0;0.18247412184672285;0.1145114300757707;0.013150752116086805;154.0;0.1817736575523283;0.10542989313558394;0.011144120909675658;153.0;0.17497347590801052;0.10016553881532032;0.0100467557701717;152.0;0.1718680990138366;0.10696744158074586;0.011450551854124708;143.0;0.17935629251534765;0.10300734612475206;0.010617878288686194;151.0;0.17628821183385854;0.08605183766483891;0.007423084348526522;141.0;0.1632143223959374;0.09281956328157343;0.00864033404707439;152.0;0.15727616648299877;0.10523077970156929;0.011105913875974894;153.0;0.1630083865419959;0.10818745295633461;0.011738232140064185;155.0;0.1652775009494958;0.10017078067558804;0.010063866366533216;153.0;0.1624294293759067;0.09471823329604215;0.00899875760900071;156.0;0.1646413635005162;0.09268101908033677;0.008615762402006058;152.0;0.16843121253806617;0.09052550988032218;0.008220022947723324;150.0;0.1716532474155482;0.08528943824135606;0.007293934589126503;147.0;0.15409390620405927;0.06672575234039795;0.004466443129153935;153.0;0.13935330892991935;0.06763484653358702;0.004588803544170388;149.0;0.14243703511734354;0.06544923300759652;0.0042973060952355155;152.0;0.13875728128172873;0.06508584229847324;0.004249977717630349;157.0;0.13493318990800124;0.072090372201558;0.0052140337253939895;152.0;0.13731309894868973;0.0842834210041262;0.007126763409180708;155.0;0.1470857277106801;0.07650402179043606;0.005871971045648225;152.0;0.13926159379513708;0.058346294097461185;0.0034143840506102555;159.0;0.13005553377809734;0.049643230825184036;0.0024724547549222053;164.0;0.11906464227625711;0.053264346071541104;0.0028457178908233905;157.0;0.1223418804815053;0.053302586894812855;0.002850217130287825;154.0;0.1241113746644183;0.05354833225249321;0.002876497733693827;160.0;0.12426865718293001;0.05791098319973603;0.0033646343195871263;168.0;0.12671942954597926;0.06596055461770094;0.004364852645473188;166.0;0.13215105993686876;0.06666576876605067;0.0044583535374098085;168.0;0.1331194896444757;0.046675726833763254;0.0021857518097152355;165.0;0.11612119519827727
0.10091192154506136;0.010198728732906252;138.0;0.17105617922474645;12.0;0.10607001033399881;0.011267171050815619;150.0;0.1764311662703859;0.10988416479663793;0.012096046846870963;154.0;0.17638203332028277;0.1028747873304792;0.010601368300005354;157.0;0.1680244341065892;0.10214540270243562;0.010451457138405921;147.0;0.1654554280499307;0.11015542882766123;0.012156587577574648;146.0;0.17577001737697406;0.10601503625095772;0.011260641410126438;144.0;0.17316484287887607;0.09185846932063214;0.008453359335868459;141.0;0.16043224662985747;0.10268145988356915;0.010576470235905012;150.0;0.16098371851058504;0.11310571299346406;0.012834495787927041;145.0;0.1673994985639605;0.11382139610364307;0.012997259713662293;144.0;0.16738695089813355;0.10827924313973686;0.011760976288120202;145.0;0.1650419157475969;0.10552513647343699;0.011169182964848959;145.0;0.16614807612155888;0.10510469797326212;0.011077379120637922;141.0;0.16994115952719885;0.10379179813050136;0.010800413523564218;143.0;0.17317660809518712;0.09556576213897436;0.009158893705569176;147.0;0.15719586977671443;0.06211673744713407;0.003868317527254963;156.0;0.13269154405717326;0.06468861434752377;0.004194956749877347;156.0;0.13592601527421683;0.06419746397414644;0.004130355301440047;155.0;0.13301133417578032;0.06128461056596187;0.003764574698152489;161.0;0.12830698443291474;0.0646951564522913;0.004195340482846166;153.0;0.12906695730465587;0.0732599722627656;0.005383306699531708;154.0;0.13817557798888974;0.06545028290858554;0.0042953569409152235;155.0;0.1287078883679994;0.054057176178228465;0.0029274081616934323;146.0;0.12334154967245767;0.04998192171032593;0.0025015346104291436;154.0;0.10992499424193339;0.054044230747235994;0.0029218805300673433;140.0;0.11124935828995496;0.05232036819591402;0.00273995507827096;154.0;0.1088930571069787;0.051639854291825424;0.002670162288615481;149.0;0.10904155897047121;0.055766939133719946;0.0031127459849562707;153.0;0.1117589539891938;0.06139672125006679;0.003774966133317968;154.0;0.11738661341030662;0.0636290613703123;0.004054432525728267;155.0;0.12018368296859468;0.048220076527358095;0.0023242758682366325;142.0;0.10810760930693625
0.0838092778781925;0.00704303138263975;165.0;0.13650803264808484;12.0;0.0935566317958847;0.008778137744565984;169.0;0.14213070478035256;0.09763490686722341;0.009558565311210002;168.0;0.14148587599685306;0.09038203209006766;0.00819003097284279;171.0;0.1351305598582682;0.08715497017303742;0.00761017436344397;166.0;0.13236448174327117;0.0912013753114693;0.008332176053829379;171.0;0.13996666703435096;0.08439778766597689;0.007134420834728603;169.0;0.1351256656800902;0.07242689313020961;0.005259075510737406;166.0;0.1265746827979972;0.07355867556768719;0.00542465115218006;171.0;0.12214892880057032;0.08088213935449615;0.006559992939757825;171.0;0.12715284364579074;0.07975265325055218;0.006379805080065716;168.0;0.1263729022177066;0.07614068443967799;0.005814121205124489;169.0;0.12573068665791926;0.07556819353107119;0.005726373415577603;159.0;0.12620978613120623;0.0771659235893305;0.005971978767439485;158.0;0.12980761824398238;0.07887063097694746;0.006238169952538449;161.0;0.13204477376500795;0.06846449001188126;0.004696831605327022;169.0;0.1205552986273564;0.059388583365408296;0.0035094495734265107;163.0;0.12293659369551005;0.059976224115721115;0.003580574287895902;167.0;0.12380353979751903;0.06165484114774897;0.003785368058144524;167.0;0.12323209619900923;0.06197189604138795;0.0038259946019949076;166.0;0.12229326840684714;0.06768083514128727;0.00457365489907101;160.0;0.12562885593001658;0.07413075564889957;0.005484417829457944;157.0;0.13069071334422255;0.06802751663641986;0.004613705824658454;160.0;0.12393370935226404;0.05315877822324113;0.002813117048937988;155.0;0.11893029434342481;0.05541792940749075;0.003043688160470163;162.0;0.10901470794412653;0.059561515300906635;0.003517405184957735;165.0;0.1118182103331163;0.06066979214819466;0.0036475173450442964;175.0;0.11184660199423949;0.06044600965403509;0.0036188818860950255;167.0;0.11425197917216283;0.06325724295422025;0.003974334571624593;148.0;0.12000478441075826;0.06667758668692585;0.004418608342061592;153.0;0.1260625654950318;0.0682127640521813;0.004621373554928238;152.0;0.12942339306008277;0.05371106544054438;0.0028594349710156573;158.0;0.10743773445430166
0.054400828872477686;0.0029343520904447002;174.0;0.10588582419716992;12.0;0.0641263144375054;0.00407556199211945;172.0;0.10598337350368327;0.06670158533331913;0.004409913469837168;171.0;0.10781093478864806;0.06551016036749673;0.00426474799665709;174.0;0.11102470940979921;0.06928222509919883;0.004781428454061829;174.0;0.11797343428310636;0.07586825705575787;0.005741436176601275;178.0;0.1234703202654877;0.0667741283263592;0.00444532982421746;179.0;0.11680066069116127;0.047083524498258394;0.002202054940018306;175.0;0.10557042314246198;0.04578411085917226;0.0020957032707516806;164.0;0.10259029605463402;0.0545927509456055;0.0029842253562028303;163.0;0.1088035177683116;0.057947411205889233;0.0033662675852918966;163.0;0.1118197404988161;0.05348203389899346;0.0028663872297258687;163.0;0.11199429000213844;0.05050059538482692;0.002553510318376987;155.0;0.11311267898988377;0.05127178606792467;0.0026320118505157287;154.0;0.11682647694566546;0.05342076086510981;0.0028508605756471794;161.0;0.11812752134729691;0.04036382180529436;0.0016277499943403038;166.0;0.1002171264687376;0.08399223829569749;0.007074151053233319;152.0;0.14432566694096682;0.08539805948582348;0.007312673520151498;158.0;0.14696031205686214;0.08481623998795174;0.007214091641450872;156.0;0.143948208479435;0.08685267015475394;0.007563835724417707;152.0;0.1409184276136231;0.09759513836962605;0.009550981348035026;154.0;0.1465954505252756;0.10714156899206066;0.01151279855189225;153.0;0.14910247091221493;0.10040891775786864;0.010111739693393058;154.0;0.14427856527879912;0.07335358086821729;0.005392597066977481;154.0;0.13880474380952415;0.08379444621825527;0.007036971006853802;151.0;0.13268537817587028;0.092859297090063;0.008645408253741316;161.0;0.1394652018361439;0.09562576436462271;0.009169229146040044;167.0;0.14278095829068663;0.0941123094981718;0.008885862129720682;165.0;0.1451965435538249;0.09703293351925128;0.009446306303654976;153.0;0.15059751698616589;0.1025350289503132;0.010548016313765446;157.0;0.15629646911893216;0.09822851849033006;0.009680679119351722;154.0;0.15486876160834948;0.07844765065029453;0.006171037454270832;160.0;0.12919728958574295
0.07284969187201938;0.005307217482362707;146.0;0.1444429526442138;12.0;0.07758874217625346;0.00602546552226806;146.0;0.14636201625088313;0.07965317324288369;0.006348257332890205;146.0;0.1441555151766277;0.08005997127272156;0.006415405207035526;149.0;0.14490513439283592;0.08950565040194551;0.008021241007767703;155.0;0.15205899779176607;0.10100864738605728;0.010218183473834732;150.0;0.159081349636244;0.09231148125113761;0.008533497140476506;159.0;0.15133194583542225;0.06595271062019314;0.0043496258423919585;149.0;0.13913006902156302;0.06965594690226941;0.004845593784830726;144.0;0.1306154559429603;0.08157641815640021;0.006657155202795521;155.0;0.13868667728024606;0.08479902582399552;0.007197554668381445;160.0;0.14193027211668197;0.077240529145688;0.00596679891484051;156.0;0.14018214690338615;0.07257535400359783;0.005266160001063914;145.0;0.1424195420521891;0.07395805887637097;0.005468551583866689;149.0;0.14896396925301725;0.07609811228617347;0.005792377916193669;148.0;0.15071949926456046;0.06288103790082573;0.003941562481451058;142.0;0.12697378076791155;0.09995579057395157;0.010000460011408977;140.0;0.16390972578327576;0.10087829225526826;0.010185093460181965;145.0;0.16664885588365275;0.09839054662945972;0.009693956444784529;145.0;0.1630001937752806;0.10019835619856579;0.010050308188796011;151.0;0.15829714550971802;0.11223843307366986;0.012621511513378095;158.0;0.16403874270623534;0.12221719066743389;0.014969217310594684;155.0;0.16677409681797267;0.11352191152024921;0.012911902282160385;157.0;0.16041495421866886;0.08998601805068837;0.008101833128949756;143.0;0.1574387407967824;0.11210146128850242;0.012573839463782785;156.0;0.15496025959875995;0.1256526141136092;0.015796758516685126;147.0;0.162928524465384;0.11943165090383702;0.014252223788727083;159.0;0.1639860213922846;0.10828255582935917;0.011710557183511248;158.0;0.1633209261325805;0.10568008457841535;0.011158615611437992;161.0;0.16847217715039586;0.10997563701474525;0.012077670683740426;160.0;0.17539692488802164;0.10527506101418625;0.011069348029588566;157.0;0.17355670304935494;0.09704986988941738;0.009413926222989612;159.0;0.14835860698663103
0.08530942939801638;0.007298839944311957;150.0;0.15659163767336287;12.0;0.08848821433771714;0.007854995827639853;153.0;0.1586411245624221;0.08806930679171157;0.007780733873582576;149.0;0.15382844848280336;0.08712446002202306;0.0076145961239309015;149.0;0.1514405225490343;0.09551135116755026;0.009150644209195227;159.0;0.15515335349335047;0.10611516311533019;0.01129628521711811;157.0;0.16095084982209645;0.10056973795171356;0.010146351473105282;163.0;0.15485894965601005;0.07685917625680412;0.005925499431859859;149.0;0.14703506877554084;0.08540778673659752;0.007318447107316053;149.0;0.14047432797135562;0.09658690609234705;0.009359669230688377;163.0;0.14816181796082892;0.09732863014172835;0.009503878857892235;172.0;0.15012634854712148;0.08820677651013217;0.0078059634756599584;167.0;0.14706768687323699;0.08305582917468386;0.0069207206105800865;153.0;0.14762291367619662;0.08400401530562016;0.007079571723028867;157.0;0.15349241632624;0.08554331139571697;0.007341030045517879;156.0;0.1555519669062994;0.07729876074327212;0.0059943443646765775;148.0;0.1367598932581663;0.08896911471574061;0.007934089694504367;143.0;0.16570206115037311;0.08880441967582657;0.007906337191001664;150.0;0.1673993106711948;0.08744350898192797;0.007663551696145697;147.0;0.16639283343503655;0.08852656199165815;0.007854551058183081;155.0;0.16270360266804743;0.09739324137148209;0.00950780717403895;155.0;0.16482439266668183;0.10494350362035175;0.011040750804075102;157.0;0.1686173372838792;0.09704807347657236;0.009439199501949203;163.0;0.16358168222262245;0.08236353655660314;0.006794832245422107;148.0;0.16074287443253008;0.10277641860914921;0.010589142101198061;156.0;0.15461175672268396;0.11447638245166046;0.013139885488377412;145.0;0.16093132898378934;0.1091638005979122;0.011950596347197305;157.0;0.16167115411173213;0.09472315458227247;0.008999671862067864;158.0;0.15799753976142453;0.08955588381817642;0.008045349295554165;165.0;0.16163184307581785;0.09318658738282645;0.008711561676890465;162.0;0.16981707243521152;0.09146931975196931;0.00839336655903751;153.0;0.1713617395942111;0.08656824207676142;0.007514476167130676;157.0;0.1482680840690658
0.07903973846121408;0.006250183105805036;159.0;0.14431653296431335;12.0;0.08508550418972911;0.007240497660946937;159.0;0.14711414521334545;0.08271246556243911;0.006840011372390428;162.0;0.1453080358689079;0.07783288665556963;0.006052697655051861;168.0;0.14039899042508944;0.08095378342474487;0.006547291757753146;175.0;0.14522219932842048;0.09087184732662082;0.008254632533506754;167.0;0.15657671868244757;0.08713685919479491;0.007588138735277253;168.0;0.15082068338659035;0.06981687422944649;0.00487033408288096;164.0;0.13470129401461262;0.08127083279726195;0.006592360055420418;154.0;0.1345838254507311;0.09197379310921831;0.008455089376848166;154.0;0.1414153365486322;0.09171376676803195;0.008406726725672591;162.0;0.1420475384953429;0.08366491082988138;0.006992460073989876;164.0;0.13946075343302028;0.07928814542168651;0.006278485654069261;165.0;0.1403057809298685;0.07855240540907958;0.006160071350301384;165.0;0.14436909660259659;0.07806379976066669;0.006083532826948115;164.0;0.14495890860119304;0.07153055898140333;0.005110943258966381;155.0;0.12884891599089324;0.093393837810647;0.008750808147770921;151.0;0.1679134814127362;0.09969524579119513;0.009971636282081928;155.0;0.17440193262650694;0.0975488423797451;0.00954685720349131;140.0;0.17436105427096302;0.08979241861597498;0.008088988156741573;151.0;0.16709394515845832;0.09311824064532401;0.008699129554393246;155.0;0.16869467598956267;0.10633625432297991;0.01134341152224373;157.0;0.17920032932798075;0.0969208106372633;0.009422765416582398;161.0;0.17207339041086936;0.08524355702545465;0.007290222682501499;149.0;0.15996252986145523;0.08596692411234545;0.007410401392194469;147.0;0.1492998128682802;0.0900116916803935;0.008123541606928414;143.0;0.1526818681823442;0.08852551739395993;0.007857637918310827;148.0;0.15246441602100352;0.0798893137561057;0.006400045247129211;149.0;0.14825434883829733;0.08032546717275615;0.006471970852013524;151.0;0.15092236623699679;0.08673514896919983;0.007545765289297147;150.0;0.15882702958048456;0.08749962505380672;0.007680461232956149;144.0;0.16212443504247337;0.07750308389084493;0.0060229938669928524;144.0;0.14581430442841942
0.06522307160822378;0.004266819156403312;151.0;0.14411309744142708;12.0;0.07507096436044673;0.005651233323102924;145.0;0.14921700493276152;0.07467187788279672;0.005593095519781147;155.0;0.1471262002533075;0.06887241094748271;0.004758583073574098;157.0;0.140770012209917;0.07296338231319366;0.0053410487534039245;162.0;0.14517383019588942;0.08806949627779226;0.0077811091281269175;148.0;0.15985420147474952;0.08432558673500025;0.0071340245913304;155.0;0.15448967246373438;0.05464817708832471;0.002995665116146252;162.0;0.1325992120133091;0.06533230684102123;0.00427872395960783;157.0;0.1325412799331279;0.07698571355869965;0.005943351963722507;153.0;0.14051361713513294;0.07832300122833122;0.006152616400292691;153.0;0.1418582502562635;0.0706129072401741;0.005001421288509137;157.0;0.1388831627434932;0.06514304616918154;0.004257381000116726;160.0;0.13826971583977204;0.062175437415782304;0.003878192318571038;164.0;0.14130026881263724;0.05920718307623622;0.0035168107491270434;158.0;0.13945068672513514;0.05828938931854906;0.00340655858724096;159.0;0.12765932929799034;0.09474503822843411;0.009005052923284466;148.0;0.16503034941266578;0.10187380032213886;0.010411030389068463;150.0;0.172220505267101;0.09844262692847407;0.009721892379994584;145.0;0.17081710382663673;0.08942153006483224;0.008021047994235562;144.0;0.16207262958426769;0.09126934346793346;0.00835699491561192;146.0;0.16400027821085228;0.10511309681863842;0.011084917976567446;149.0;0.17475374710311847;0.09585121284326628;0.009217462370425198;147.0;0.16525896773522955;0.08646969790604084;0.007499357630666592;139.0;0.15581252870955295;0.07920218423240846;0.006293079416243586;146.0;0.146472595694288;0.07965516100767821;0.006364981396889275;144.0;0.14914990143737478;0.0761316903382316;0.005814369253812059;147.0;0.14904750408263445;0.07196806730544376;0.005194789347016429;142.0;0.1479857951317042;0.07718535110127232;0.005973837024932333;127.0;0.1525566233628231;0.08574099661551353;0.00737071891365134;128.0;0.15977303690729863;0.09194646059799572;0.008475085842368212;133.0;0.1653026574226575;0.07293298474338847;0.005336428857954836;136.0;0.14331790743271364
