rms_s1_ch1;var_s1_ch1;zcr_s1_ch1;wl_s1_ch1;rotule;rms_s1_ch2;var_s1_ch2;zcr_s1_ch2;wl_s1_ch2;rms_s1_ch3;var_s1_ch3;zcr_s1_ch3;wl_s1_ch3;rms_s1_ch4;var_s1_ch4;zcr_s1_ch4;wl_s1_ch4;rms_s1_ch5;var_s1_ch5;zcr_s1_ch5;wl_s1_ch5;rms_s1_ch6;var_s1_ch6;zcr_s1_ch6;wl_s1_ch6;rms_s1_ch7;var_s1_ch7;zcr_s1_ch7;wl_s1_ch7;rms_s1_ch8;var_s1_ch8;zcr_s1_ch8;wl_s1_ch8;rms_s1_ch9;var_s1_ch9;zcr_s1_ch9;wl_s1_ch9;rms_s1_ch10;var_s1_ch10;zcr_s1_ch10;wl_s1_ch10;rms_s1_ch11;var_s1_ch11;zcr_s1_ch11;wl_s1_ch11;rms_s1_ch12;var_s1_ch12;zcr_s1_ch12;wl_s1_ch12;rms_s1_ch13;var_s1_ch13;zcr_s1_ch13;wl_s1_ch13;rms_s1_ch14;var_s1_ch14;zcr_s1_ch14;wl_s1_ch14;rms_s1_ch15;var_s1_ch15;zcr_s1_ch15;wl_s1_ch15;rms_s1_ch16;var_s1_ch16;zcr_s1_ch16;wl_s1_ch16;rms_s2_ch1;var_s2_ch1;zcr_s2_ch1;wl_s2_ch1;rms_s2_ch2;var_s2_ch2;zcr_s2_ch2;wl_s2_ch2;rms_s2_ch3;var_s2_ch3;zcr_s2_ch3;wl_s2_ch3;rms_s2_ch4;var_s2_ch4;zcr_s2_ch4;wl_s2_ch4;rms_s2_ch5;var_s2_ch5;zcr_s2_ch5;wl_s2_ch5;rms_s2_ch6;var_s2_ch6;zcr_s2_ch6;wl_s2_ch6;rms_s2_ch7;var_s2_ch7;zcr_s2_ch7;wl_s2_ch7;rms_s2_ch8;var_s2_ch8;zcr_s2_ch8;wl_s2_ch8;rms_s2_ch9;var_s2_ch9;zcr_s2_ch9;wl_s2_ch9;rms_s2_ch10;var_s2_ch10;zcr_s2_ch10;wl_s2_ch10;rms_s2_ch11;var_s2_ch11;zcr_s2_ch11;wl_s2_ch11;rms_s2_ch12;var_s2_ch12;zcr_s2_ch12;wl_s2_ch12;rms_s2_ch13;var_s2_ch13;zcr_s2_ch13;wl_s2_ch13;rms_s2_ch14;var_s2_ch14;zcr_s2_ch14;wl_s2_ch14;rms_s2_ch15;var_s2_ch15;zcr_s2_ch15;wl_s2_ch15;rms_s2_ch16;var_s2_ch16;zcr_s2_ch16;wl_s2_ch16
0.03854331307865519;0.0014898131600969595;155.0;0.09737798528205492;12.0;0.043857509079352215;0.0019290453283047871;148.0;0.09961241595972238;0.04915680749395315;0.0024230825203536287;142.0;0.10223575817198222;0.05163437287042304;0.0026733524813352875;146.0;0.10437895272766987;0.042526425216544844;0.0018136820592199573;154.0;0.09778695885960836;0.03752865298509439;0.0014126640548086627;145.0;0.09414254785870423;0.0344756049333017;0.0011923639986056453;148.0;0.09349840415811973;0.033911338002552124;0.0011532734284241857;153.0;0.09709603658471003;0.041561360184720196;0.0017321872802658234;165.0;0.10929924494265085;0.04697770735542387;0.0022131544896714828;158.0;0.11946650577564438;0.05368965761427408;0.002887832342632183;148.0;0.11981868468160645;0.05427049133004258;0.0029471919891550366;145.0;0.11723977848445093;0.04539862986815747;0.0020588033264901705;161.0;0.11386454750264882;0.041102847262229576;0.001689806585237189;155.0;0.10947534908962059;0.031586431360228547;0.0009986225783599977;146.0;0.09906230105530535;0.033780682985748677;0.0011444375023826896;154.0;0.09635771678086241;0.0838553444009295;0.007054248079105385;155.0;0.15873006414678095;0.08894304772876106;0.007935070772415067;158.0;0.1571413654886428;0.09547325982199506;0.009141960131231409;163.0;0.1578214087732116;0.10132962548601138;0.010298091504872188;170.0;0.15958438266856143;0.0965452454031829;0.009348218163506443;166.0;0.15490523210903978;0.09219028012959286;0.008522822322719581;164.0;0.15058968058013675;0.09256399057768104;0.008592771724463162;154.0;0.1504149772210008;0.08150967305790009;0.006665202982684836;157.0;0.1583574561657849;0.1291257897881186;0.0167059933376594;145.0;0.15800491922548543;0.11378072241166423;0.012970414765998499;151.0;0.16216176704742058;0.12438865436546973;0.01548776529273113;151.0;0.16700382919174556;0.1258115813590259;0.015842955291380786;152.0;0.1708343024282715;0.10758702018516475;0.011600765901741516;157.0;0.1700267939381025;0.10020325297203153;0.010070129640632221;158.0;0.17464832789301546;0.09277537201656719;0.008634256070570343;151.0;0.16749787660493698;0.14833475688665607;0.02205674179936426;152.0;0.16207616184842544
0.07288976940094948;0.005330223368505938;155.0;0.12936130607728458;12.0;0.07866592485416578;0.006208501866375688;155.0;0.13025296186542598;0.0834229503483042;0.006982233127176481;154.0;0.1316591147830041;0.08490440823894466;0.00723233268808565;155.0;0.13238183013393431;0.0758939218914352;0.005778648588319359;155.0;0.1244245047322958;0.06934828725818934;0.004824916062040362;156.0;0.1195637324197319;0.06547301322906565;0.0043005173230845585;157.0;0.11732293421090079;0.07105755821510062;0.005065473377484908;158.0;0.13232941721420288;0.07018854581288732;0.004942610795546561;169.0;0.13439322441128507;0.07819806510837861;0.006135015934512499;160.0;0.14592477707358506;0.09063658961697023;0.008241890847047682;155.0;0.1502264301852852;0.09072756917458175;0.008258227223157187;156.0;0.1453995939817533;0.07837257950366269;0.006162011900467823;171.0;0.13978405997584872;0.06952211721978979;0.004847517330698089;169.0;0.13486485472092224;0.06228836429049392;0.003892042463497852;166.0;0.13071418728632028;0.06175185070780975;0.0038257874917582103;165.0;0.12160893015111834;0.11736660653737062;0.013819906377121867;155.0;0.18649997135271285;0.1280603417719648;0.016452533107949918;154.0;0.18628485847284187;0.13454203368437184;0.018157325677117666;156.0;0.18630152941988692;0.13408003237567506;0.018031698421449496;163.0;0.18317782527493123;0.13084950659808234;0.017175416270493616;162.0;0.17943064586803067;0.1287121699701467;0.016621209351275434;156.0;0.17695136453499866;0.13080963434985615;0.01716738470968891;153.0;0.17708036683715453;0.1120865674000666;0.0126041229212108;159.0;0.1866529069937219;0.16693431406846088;0.027951036245144292;148.0;0.1781559047469084;0.14652724034822145;0.02153875962274537;145.0;0.17889160436171136;0.15396920539248474;0.023782517692383934;145.0;0.18491627141451986;0.15293430176668657;0.02346544839809922;140.0;0.18841826094025915;0.1298365471775412;0.016911389728597244;149.0;0.18515388794581725;0.12323119476213726;0.01523510587033152;157.0;0.19067852170014182;0.1120727816024405;0.012601406174289788;154.0;0.18778177218141706;0.18994224608390226;0.036175173593451466;143.0;0.18470505323986106
0.12026655948083004;0.014503043028236635;151.0;0.17065422636842878;12.0;0.12573040183100925;0.015848421196442558;148.0;0.16898273765125735;0.13024654776334596;0.017005363306397785;149.0;0.16789831029689564;0.1290732129092495;0.016699266032751393;151.0;0.16553585755386782;0.12219057636774011;0.014969146032914096;149.0;0.16031752397097981;0.11376836774163512;0.012977643887249212;152.0;0.1553025053861129;0.10754450866745814;0.011596391228019582;152.0;0.15235539920692814;0.11749705254936513;0.013846327716047999;152.0;0.17461384188200724;0.1058961206612369;0.011246507288278222;162.0;0.16287755299147794;0.11442926382032143;0.013134017362273603;153.0;0.1701630454318945;0.12143084095506962;0.014788521094709475;154.0;0.1727614288041693;0.12311042552294155;0.015193768056245999;156.0;0.17176885870596728;0.11723628677408378;0.013771053574720058;167.0;0.17632782567544866;0.10541737975751848;0.011136711035918583;169.0;0.17085778652794947;0.10026825410367195;0.010080610621927189;167.0;0.16846477940968102;0.09675973050972823;0.009387924320212513;159.0;0.1547609094449262;0.13198418852958316;0.017475982107533837;161.0;0.18926164899280892;0.14324481966048058;0.020586064591533556;156.0;0.1907254968874573;0.14854588919052666;0.02213743643642254;150.0;0.19224705848946178;0.14648458227776628;0.02152779969931303;155.0;0.1889437010457888;0.14242168183912365;0.020350222062300572;160.0;0.18498201599386319;0.1381438201081852;0.019146101569588184;161.0;0.1817612236972832;0.13718681780933265;0.01888156290452986;161.0;0.18114791392342933;0.12586537168067902;0.01589365257714089;165.0;0.18884515105077068;0.16040504887389462;0.02580983889969923;142.0;0.1837216453002672;0.14479302015960718;0.021032635228262393;144.0;0.1812235934093042;0.14478933899015525;0.021032547360963553;139.0;0.18002441201334013;0.1408996487904404;0.019917436483804965;143.0;0.18006904195676107;0.12242162243799219;0.01502802851383759;152.0;0.1769880032734018;0.11889944800093279;0.0141646808666557;164.0;0.1824027139978684;0.11020816475085377;0.012165992136171923;169.0;0.18214050297458495;0.17989231033689335;0.03245042922828854;137.0;0.19060536869486178
0.14931078983808171;0.022366012411808144;145.0;0.1847715390149621;12.0;0.15893008149722523;0.025340411355754704;143.0;0.1824106214336779;0.16546141595453573;0.027466533456008985;143.0;0.1809072557247918;0.16337316708439015;0.026776667520518282;141.0;0.17823257788515104;0.15344804361384215;0.023622064869618414;140.0;0.17309983568750378;0.14213813767065359;0.02026811646992516;138.0;0.16843822469416553;0.13291535074061225;0.017723269681089907;138.0;0.16478405945118646;0.13989231021952048;0.01963338034066906;146.0;0.1878516292436423;0.12238870710308246;0.015021318581745543;137.0;0.17160617083586863;0.1275639594609822;0.016314792565734468;143.0;0.1775118302093049;0.1279166591125242;0.01640600866642083;142.0;0.1775927054830782;0.12329392363630096;0.015245766405112939;141.0;0.17794679163239682;0.1254142992371322;0.01578014740416268;158.0;0.1896053152745558;0.11755220115187671;0.013863562973093584;158.0;0.18682426386147122;0.11452092707771315;0.013156595538000455;157.0;0.1820788339502543;0.11256785345755607;0.012708487615580815;131.0;0.16320680592203493;0.12887826860727417;0.016662506958007094;143.0;0.19028820121645426;0.13648271686490349;0.018688520596670068;139.0;0.19205878271252483;0.13821544112188852;0.019166065282611274;134.0;0.1913136216384468;0.1345522406058058;0.018163603274113933;132.0;0.1865997240146352;0.12914829806992917;0.0167333031220663;136.0;0.18209211516116286;0.12406231638153352;0.015441680584206708;141.0;0.1778846195174376;0.12098109592075303;0.014683888200736673;145.0;0.17662291098890043;0.12181076257056618;0.014886314207009171;154.0;0.18740468954971964;0.13434802488052486;0.018076552050389;154.0;0.181714448069731;0.12743599073317372;0.01627121924575851;162.0;0.17918038254584975;0.12619691424656848;0.01595317377839207;155.0;0.17530638688461175;0.12353882750107757;0.015291606079706619;159.0;0.17545380855161283;0.11596425114640464;0.013471768713452325;157.0;0.17559625670234064;0.11475016233942983;0.013191999442334344;156.0;0.17982316713025367;0.11375821008275155;0.01297303365798962;160.0;0.18143274392063002;0.14670821529252703;0.02154126225531171;147.0;0.18712851471506114
0.1384520183327131;0.019220843029976023;155.0;0.17641305003154584;12.0;0.15169498120331248;0.023079313137605136;154.0;0.17546343575803636;0.158611831241947;0.025233471209012023;155.0;0.17497179711166339;0.15482281065610567;0.024044228993075796;153.0;0.17159605222252464;0.1416579143887401;0.020127466452250664;153.0;0.16466160792652365;0.12799308661216877;0.01643196426186246;150.0;0.1579203385599774;0.11700092498226052;0.01373153577194152;149.0;0.15291579234949734;0.12849284824499366;0.016552875885916044;158.0;0.1826376517550407;0.1091302105512825;0.011939206970765759;144.0;0.160881031154852;0.11366211281098779;0.012951479606666427;152.0;0.1689048513799679;0.11169037592006928;0.012503849862861993;152.0;0.17254708918657358;0.10034046923600398;0.010096720106237843;138.0;0.17076505606387887;0.11416219238393077;0.013075575456854886;157.0;0.18657422967376486;0.11688497181959845;0.013706749071947936;152.0;0.19215113713909454;0.10935406739150948;0.011996828325232751;148.0;0.18117976915980832;0.09654695121500295;0.00934626004317756;138.0;0.14935330822173923;0.10737021285191158;0.011564158425941662;142.0;0.17558429131997433;0.11564164802457294;0.013415878145095397;144.0;0.1788584981086663;0.11693744860343372;0.013718515480804001;144.0;0.17740678607989915;0.11388194575777362;0.013011300061843471;142.0;0.17251498959611292;0.10824538919559297;0.011753037006993606;139.0;0.1675414173426585;0.10261250628056101;0.010563023438470681;140.0;0.16217936302891522;0.09935461060554941;0.009902435452720834;146.0;0.1593329937883813;0.1045458886475248;0.010965343728646212;145.0;0.17659596096359867;0.11217704888889173;0.01260464976397157;167.0;0.16376514912515092;0.10927759272055293;0.011965672748004957;167.0;0.162168293694339;0.10931603727750276;0.011971195805339908;160.0;0.16236092824008846;0.10809759303839399;0.011697987789327562;161.0;0.16195958917525888;0.10586314731300024;0.011221796750209005;150.0;0.1636867999820851;0.10879082856094197;0.011855072142050333;154.0;0.17016980904724494;0.10822704109646224;0.01174145881644003;156.0;0.17322478401281807;0.11935424298739657;0.01425790979601153;158.0;0.16530271762051715
0.101955465260636;0.010428242078042972;158.0;0.16543571894548428;12.0;0.1110072903184151;0.012362718612474448;156.0;0.16545633493260403;0.11507268415956055;0.013285120837619416;162.0;0.16527756438073962;0.11010993642362199;0.012163922324970714;161.0;0.1600831568103931;0.09965233615439609;0.009962652490256397;162.0;0.15316578266143605;0.08865294281303249;0.007884452897539949;160.0;0.1465094859801928;0.08001358264755236;0.006422927977216695;158.0;0.14172926636498664;0.1005083228241952;0.01013415196112936;156.0;0.171940496835586;0.08900787627273406;0.00793755860050821;166.0;0.15098594539244437;0.09821991466122545;0.009671875536886537;164.0;0.15913000373077027;0.09898983882910228;0.009830771442837704;159.0;0.1668171496359719;0.08635536180116293;0.007481899754588392;147.0;0.1658564770527077;0.09574691753522356;0.009195223601794434;151.0;0.17998215789234825;0.10343746713262283;0.010731640677983757;146.0;0.1903005386634184;0.0944546565505187;0.008950468144801646;145.0;0.17658904401339975;0.07261460856646433;0.00528377245986191;161.0;0.13903693475963982;0.09196477491624307;0.008482298902999424;157.0;0.1674181934578955;0.10313751193960768;0.01067065496321559;158.0;0.17262447783668716;0.10709620993330234;0.011505976099054701;160.0;0.17395363306307735;0.1038651537191963;0.01082185262520746;163.0;0.16813350072392985;0.09807788202533577;0.009650070550484568;162.0;0.16284756545415147;0.09086314360592436;0.008282639791105263;162.0;0.1576008190557708;0.08623633735141678;0.007459665680053542;168.0;0.15373646223028412;0.09191943650986771;0.008474908011827336;154.0;0.16941838810636298;0.09595500428298653;0.009225106476119044;168.0;0.15716007984255143;0.09561291668885974;0.009163367343975009;160.0;0.15816402548656755;0.0971860487666099;0.009466780736825234;163.0;0.15998646322513252;0.09546215277806537;0.009133987626366245;162.0;0.16015390981760264;0.09512484009916126;0.009066359551909646;151.0;0.163584321504406;0.10534070057744961;0.011116990530571455;152.0;0.17119743899551834;0.10519905669043617;0.011088858145426041;163.0;0.17327634724323734;0.09871114361933832;0.009754155047870559;163.0;0.1566115966282236
0.08363293608047638;0.006982995138423696;150.0;0.15513461322552172;12.0;0.08745699630241413;0.00763635557824767;146.0;0.15514601378468398;0.08664513896275029;0.007501559473269338;148.0;0.15335173109473282;0.08057900449382753;0.006475134635271201;149.0;0.14696624908679098;0.07298514659619844;0.005308618034893962;148.0;0.13991795425369163;0.0660965260042819;0.00435129532856634;151.0;0.1354696050138948;0.061164305189968564;0.003722482832315134;154.0;0.13204249997493075;0.090371152954337;0.008156458695058239;149.0;0.16285749011974346;0.07053075236773511;0.004970904525878812;158.0;0.14072880054495304;0.08101595186578261;0.006561639711259783;159.0;0.14853602661547938;0.0881749640311969;0.007780510532907601;154.0;0.15785190970001986;0.07978950478343456;0.006375480986699765;155.0;0.15685834753485178;0.07880961260421902;0.006227391149023067;161.0;0.1630009040934025;0.08643654826506292;0.007491752105336378;152.0;0.16836036705922955;0.08049073888466049;0.006491733905305175;153.0;0.16507218784280495;0.05928908187147064;0.0035060365822563604;159.0;0.13260921881749263;0.08190152295778952;0.006729217235313682;143.0;0.1654631227578587;0.0917121010368698;0.008437820690878924;146.0;0.1675473050355877;0.09497910603692787;0.009048828022300542;147.0;0.16790243449451936;0.08974516239912156;0.008078453753438368;149.0;0.15979683577544376;0.0847737552586344;0.007209145502672585;149.0;0.15669728025824026;0.0799089383193329;0.006405834247775624;154.0;0.15516257525037247;0.07727616436421367;0.005990901206036864;154.0;0.15497834469708113;0.07902451488340675;0.006263398567350816;145.0;0.16243083824892726;0.07891546750970745;0.006245714701225572;147.0;0.15598885803552248;0.0772777327918813;0.005990420103145828;143.0;0.15488655916425584;0.07349257232069537;0.005413886940063366;149.0;0.15369829472564478;0.07108951696172171;0.005063719213015234;143.0;0.15401830684174286;0.07742298883285939;0.006009003408033111;139.0;0.15881728694669264;0.09271308849674126;0.008619709493076598;136.0;0.16601290031448263;0.09235105133486377;0.008552492679963695;153.0;0.16651314833929867;0.08179785767964923;0.006710422486922047;146.0;0.15546550973584616
0.07529988350243626;0.005686332553463865;151.0;0.15399069837013268;12.0;0.07693249226296638;0.00593502776568606;155.0;0.1502070388617497;0.07537363879838839;0.005696716225070836;150.0;0.14772223533619339;0.07017268867039045;0.00493845700411212;151.0;0.14212105302891193;0.062381859803929275;0.0039037574975896794;146.0;0.1351008872349291;0.056174860539985064;0.0031657752939102503;152.0;0.1309285980226313;0.05175279040403124;0.0026872100569995533;154.0;0.12669073425931637;0.08513543946101694;0.007271774419672166;150.0;0.1650455047367426;0.05998508917627139;0.00360937765514758;150.0;0.1419068620858162;0.07069614861627013;0.005014391783273566;149.0;0.14927799659973223;0.0867262171575824;0.007545609488349781;152.0;0.16152126165490374;0.0868681765577506;0.00757090350697001;158.0;0.1592119880798557;0.09173538527854166;0.008442921596511778;170.0;0.1648476124211929;0.09480872299858756;0.009018077680145656;159.0;0.16448258952684552;0.08429161300983262;0.007128140069375047;167.0;0.16472907950496785;0.05202768796842882;0.0027150798338898535;160.0;0.13300969080055325;0.0812767822154327;0.006625821866482716;148.0;0.16158610752638972;0.08834563133400423;0.00782723774436033;146.0;0.16184185816957167;0.08801642899559563;0.007770314554131893;149.0;0.15922450992989193;0.08048892355403794;0.006498324934849929;152.0;0.1519925323433191;0.07713484182865084;0.005967556496364493;148.0;0.1497200595051834;0.07526531439367712;0.005681057043152056;152.0;0.14958013220077235;0.07484103711064552;0.005618385651934773;150.0;0.15036176312499566;0.07801622547463886;0.006105763274754865;145.0;0.16001467595761343;0.07136255278003359;0.005109090563548475;149.0;0.15149225684907325;0.07083878579439859;0.005033498074603088;151.0;0.1509765081882743;0.07029947075649474;0.004957003704549449;147.0;0.1505820875790535;0.06990288335971362;0.004901483170782737;142.0;0.150658478668068;0.07538128648633946;0.005700762030729949;140.0;0.15493161117287074;0.08959606227893517;0.008053289887011837;130.0;0.16532188520267704;0.08464863993906921;0.007188601183355667;137.0;0.1636626505368853;0.07592544115294603;0.00578350690487023;145.0;0.15282637313629868
0.06613742343032714;0.004388413449138069;152.0;0.15034320361861614;12.0;0.06514218041743663;0.004257387348529229;157.0;0.14382769711312526;0.06562793636493428;0.004320822625173653;155.0;0.1407877341049973;0.06265315392533548;0.003938268344350319;153.0;0.1357775079051531;0.058600604979608256;0.0034451496714236313;147.0;0.13076005546989947;0.05570174743140166;0.0031124310575059632;149.0;0.12744112346345451;0.05323273374410608;0.00284247641185858;150.0;0.1245454292021246;0.07552002158709228;0.005721454155769963;151.0;0.1606570284923231;0.06260946450065454;0.003931840205182241;154.0;0.1404628985804662;0.07029556857250932;0.004954636267577157;149.0;0.14590772554360892;0.08133351446172633;0.006635157445047022;153.0;0.15706691172237539;0.07880692030881399;0.006230272826884072;163.0;0.15422097300729234;0.08336045121259626;0.0069716813016811536;161.0;0.16349266389486997;0.08711216186476288;0.007612911577279971;157.0;0.1671718206939197;0.07777541121733558;0.0060662661953663835;174.0;0.16125270549563575;0.05522126438514616;0.003058024426682624;159.0;0.13170335276466705;0.08992847987384038;0.008105934956258118;161.0;0.16159343804760537;0.09842473345061425;0.009709764771602738;157.0;0.16421094858412388;0.09796644259592344;0.009619327683976558;157.0;0.16258157096878423;0.08895420482239998;0.007930125349362738;160.0;0.1545002948184862;0.08447783501829768;0.007154290901533707;158.0;0.15121007325489097;0.08193921131835832;0.006731642117772916;161.0;0.1497901522199187;0.08075820273328005;0.006539918732260225;167.0;0.1483547844702295;0.08617341033244223;0.007441665276229944;160.0;0.16209768951177977;0.077845031499094;0.006077853266124591;161.0;0.15017842302093815;0.07654256073849214;0.0058767718171076335;169.0;0.1506781496367482;0.07964964628587957;0.006362711160121011;150.0;0.15256691127883618;0.0783360903961559;0.006152175826121554;157.0;0.1519592107995887;0.07583827882162647;0.005767267721380616;155.0;0.15371209377761816;0.08665683104782293;0.007530946264072214;144.0;0.16461507750062604;0.08297049514740457;0.006903570033191803;141.0;0.16339377504984337;0.0877924365323287;0.007730163129566422;150.0;0.1595459883864719
0.0523134070615204;0.0027444687965801433;171.0;0.11633933410340293;12.0;0.05392452496699351;0.002917011520118299;165.0;0.11313168258084576;0.0553435436498896;0.0030726890469290756;159.0;0.11028085973429343;0.051818304062842;0.0026934991737725764;156.0;0.10728601485099346;0.04850284678648247;0.0023595234779118933;159.0;0.1045391491888858;0.04587163247725837;0.0021102181866907432;169.0;0.1030211543413699;0.04356577625931779;0.0019037221446438872;165.0;0.10244531550844244;0.057087570895896646;0.0032686508161091634;165.0;0.12289340473324155;0.04746883352586215;0.002260272082936028;154.0;0.11130886387076455;0.051940713566963614;0.002706419524830104;154.0;0.11819698706944232;0.05061715303140522;0.0025700171935797377;159.0;0.12186304740337547;0.046098362820877474;0.0021306817473994155;164.0;0.11881088915347497;0.05083849404595879;0.0025916305104180092;166.0;0.12821233836711352;0.05814932197619593;0.0033898945995186735;151.0;0.1329801689919222;0.05382513284390154;0.0029037172692190326;161.0;0.12477641932247395;0.04296117249194532;0.001851255348376719;158.0;0.10613713180450385;0.07010807316589322;0.004930486016875487;150.0;0.13881891612829644;0.07750620634351418;0.006025714289591026;150.0;0.14026270326511397;0.07839489804653695;0.0061645614639542256;146.0;0.1409920370827155;0.07194084268692152;0.0051907130169575565;143.0;0.13623646504869835;0.06787253680179596;0.004621538581298847;153.0;0.1312476970152941;0.06611707648596567;0.004385736003695633;156.0;0.13024668336788853;0.06494653637937473;0.004231846254310329;164.0;0.12938211028654553;0.06925638105769139;0.0048116546223007295;153.0;0.13969684147140016;0.06473511023018708;0.004198094292838516;161.0;0.12826475232317028;0.06320211043624263;0.004005255975970683;163.0;0.130149304526876;0.06264624238622596;0.003937361345395249;155.0;0.13039741245465628;0.06149310150687295;0.0037937611314807053;165.0;0.13044114778159757;0.055872807238454066;0.003130660977079619;159.0;0.12950503137442898;0.06285809888469847;0.003960739777370614;153.0;0.1377114583321752;0.06316791385515483;0.004000175553316207;152.0;0.13700607200300688;0.07593355973115072;0.00577224026592681;150.0;0.13823180264837104
0.05256378981301316;0.0027706260390205086;170.0;0.10120389873540177;12.0;0.05609984893548557;0.0031558291828339725;163.0;0.10128947461362646;0.05777805733473047;0.00334573301459142;158.0;0.10048836465178597;0.05687746191475011;0.0032419793193109005;156.0;0.10010545666717824;0.054326451907474975;0.002957210599554022;162.0;0.09886791965828583;0.05204806501827822;0.002714074498508689;173.0;0.09799360335790527;0.05001209587301334;0.0025065548842440784;166.0;0.09666299825604141;0.05046324058422847;0.002554067601881926;165.0;0.10221275678058671;0.051248917887097296;0.00263452699457265;148.0;0.10571869785011824;0.05423983254866441;0.002951254304640153;148.0;0.11255966956030314;0.057601764702144814;0.00332883767878253;148.0;0.10960927250002142;0.05600235752756645;0.003146493148461496;150.0;0.10597232806479663;0.055910716021902396;0.0031349197447315333;167.0;0.10693808669285394;0.06207846210092129;0.003864763148372626;155.0;0.11398187113260638;0.05705486071476409;0.0032654185943171757;154.0;0.10790648700198441;0.04692099718253135;0.0022084897588175276;148.0;0.09707157677847804;0.08491509806607202;0.007234095925657724;140.0;0.15707285675687407;0.09808182337249986;0.00965066146757499;138.0;0.1586521239066563;0.10496468784365871;0.01105230874489231;138.0;0.16020165819956086;0.10309272114297359;0.010661537093089426;136.0;0.15985826790591032;0.09372138295266634;0.008811467745471912;143.0;0.15244586579665528;0.08509217581730973;0.007264329588020588;143.0;0.14872211097119875;0.08115893252170718;0.006608395672812553;149.0;0.1476457706989109;0.08640451634635603;0.007490096145564509;146.0;0.1594804439859082;0.07790764402684835;0.0060887342069114855;163.0;0.14131423995613218;0.07841703632638075;0.006167603801538498;168.0;0.14407678244826697;0.07862337397577732;0.006196973602572058;168.0;0.1430512083454104;0.0806482369511811;0.006518630383661376;166.0;0.1470946022370828;0.07659131503850514;0.005877550073769544;163.0;0.14651652449976355;0.08169172956756768;0.00669106744733955;162.0;0.15316691438185712;0.08487416416278919;0.007224646085250364;157.0;0.154565495063676;0.08360138668108004;0.007011176281671171;154.0;0.14167954710542183
0.08209744376375645;0.0067608003343318426;162.0;0.1401629375297605;12.0;0.08545901331779072;0.007325491201491371;160.0;0.1393188164370169;0.08652844792609374;0.0075086395633597106;159.0;0.13761813567026054;0.08446451217603392;0.00715567631191635;158.0;0.13424268975832884;0.07927089037815503;0.006302786941332573;158.0;0.1307719045070586;0.07452290760033044;0.005570719076201277;159.0;0.12718321263001858;0.0711514654386269;0.0050784407075528375;161.0;0.12434790168672463;0.08199121804119541;0.006744536501957323;157.0;0.14306900870589562;0.07294565725675212;0.0053382752742625935;158.0;0.1332476047112474;0.07604588923073227;0.005801359373902348;152.0;0.13696465056992338;0.08027082190599263;0.006461756075274343;143.0;0.13749375536315486;0.08201915524971037;0.006747134144687231;150.0;0.13786104850616426;0.0806964189084548;0.006533275617998486;167.0;0.1401884271414591;0.08903844061781949;0.00795379168695406;166.0;0.14742829244788772;0.08519865523086319;0.0072820892769494515;158.0;0.14325425158563038;0.06673057230656186;0.00446740517048777;151.0;0.12574159339520571;0.10162311937101014;0.010360336214284609;149.0;0.18553669547105667;0.11612816125536214;0.013528692396260679;143.0;0.18967279523267455;0.12409411691121178;0.015448291511156379;147.0;0.19136277294622142;0.12199924249659194;0.014930212130083918;151.0;0.18836817818560056;0.11207268889200346;0.012601167927558629;150.0;0.18126784046804448;0.10251984790381347;0.010544690752525216;149.0;0.17553538415939374;0.09835846059383237;0.009705856639137709;152.0;0.17294845273254858;0.10151625875411051;0.010338404777814048;155.0;0.18717216346367324;0.10804894388321784;0.011703268306325957;161.0;0.16613477380933275;0.1076158887955828;0.011612638871048471;166.0;0.1674267395366745;0.10896728536947523;0.0119076062776157;155.0;0.1690446283037307;0.10968845377629095;0.012067448107515696;152.0;0.17111572077933104;0.10178595801374596;0.010392758796770749;157.0;0.1702761137072907;0.10370665737435077;0.010789781827634308;168.0;0.1766877951024573;0.10454441043324378;0.010965188711198209;162.0;0.17930150995966812;0.10924695108515513;0.011968291267330945;153.0;0.16623959377029665
0.08639101535838302;0.007484958879409901;171.0;0.15053098173018187;12.0;0.0930164457487549;0.008675498161627134;171.0;0.15016653645801262;0.09563820583772328;0.009171523349311714;169.0;0.14891923267975124;0.0913447706017273;0.008366506041624876;169.0;0.14429762811389413;0.08156909527763667;0.0066706373186195605;168.0;0.138336865235355;0.07220484533490003;0.005228199130687282;170.0;0.13286264795990385;0.06603480417067464;0.004373726203134433;170.0;0.12894367746154387;0.08317690860218177;0.0069407205565158005;166.0;0.15093992052263205;0.07029708371053313;0.00495781962730124;176.0;0.1362880853828613;0.07563590865148936;0.005738697986427842;167.0;0.14077491703921455;0.07831177704579738;0.006152768355966251;156.0;0.14601031555326802;0.07772783582323915;0.006061356413283133;163.0;0.1486342809944009;0.07649452987045184;0.005870506760174522;167.0;0.1532952638452771;0.08450274950111061;0.0071640561032521545;165.0;0.1562569185190824;0.08088871633040182;0.006564111986438303;153.0;0.15265577990297044;0.06353531693015821;0.004049931614227351;175.0;0.13101837839168282;0.10603939130845542;0.011280602938051108;155.0;0.17741047069177884;0.12199142996619174;0.014929571576209501;159.0;0.18219116036465782;0.12954720264430286;0.016835843554927808;162.0;0.18394197696785172;0.12627235524678473;0.015996070796132793;161.0;0.18021659377793411;0.11850717114162763;0.014089277284098603;160.0;0.17388540940608116;0.10975231025375201;0.012084691210908499;158.0;0.16813165718651812;0.10510645675588652;0.011082702428172391;161.0;0.1644942872773449;0.10294004271743187;0.01063120396026485;154.0;0.1785903304603061;0.10807194290025182;0.011714425723025508;156.0;0.1606090412881418;0.10938821527976908;0.012001264136633445;156.0;0.1644792971692806;0.10414971669496047;0.01087602326487779;158.0;0.16443803396705797;0.0991983524929777;0.00986709011141402;153.0;0.16200193480018657;0.09304454038709335;0.008680168958815624;153.0;0.16385818593929988;0.09688389352636477;0.00941520904268566;161.0;0.1713544026128397;0.09598339790849363;0.009241650131988364;160.0;0.1730015587560059;0.10564490230533298;0.011195442713776366;151.0;0.15703151084203743
0.07655213127472878;0.005878986900880242;159.0;0.14656811630216615;12.0;0.0868611472568992;0.007569361281073764;162.0;0.14953623336574495;0.09135574965140193;0.008372313257899992;162.0;0.15039249990777995;0.0864843548284847;0.007503037711511518;163.0;0.14620985077187773;0.07531625955728082;0.0056901154011226186;160.0;0.13911832769690508;0.06405117478018049;0.004114848453498805;162.0;0.1333342613238675;0.056604568973884876;0.0032138313940975765;151.0;0.12909467749363296;0.0678864072113438;0.004623585836451631;163.0;0.14312608006026875;0.06105354296028946;0.0037372635160556086;157.0;0.13382058031342364;0.0678043136765189;0.004609259125942119;157.0;0.13875082375536513;0.06744731725994232;0.0045639624653150855;156.0;0.1419165054216675;0.06071142144865129;0.0036979056611758693;155.0;0.14160413317314538;0.064133124980976;0.004126118374606323;156.0;0.14855598525837851;0.07594682851387684;0.0057857836611194605;153.0;0.15233851697858164;0.06870328037667439;0.00473516859734369;145.0;0.14864623244143266;0.05395391753431795;0.0029185340991931;156.0;0.12778651421478274;0.10864814812171096;0.011842647227712996;154.0;0.177692727458671;0.12037169377463114;0.01453452125047638;162.0;0.17744633479996305;0.12675368810356594;0.016117437958187812;163.0;0.1773099784147837;0.12499091900445106;0.015673210980099807;161.0;0.1750081273017216;0.11899879984133027;0.014206604535267122;157.0;0.17055149238060202;0.11124970785562315;0.012416388549082674;155.0;0.16564089879879523;0.10719681912876246;0.011528714303764332;156.0;0.1633542023092019;0.1072822263558166;0.011544733981053797;149.0;0.1795047952333943;0.09766605721265532;0.00956483243654867;150.0;0.15942157153071984;0.09827414910631779;0.009683261971253826;158.0;0.16279950558340078;0.09651964609161565;0.009337583181949207;160.0;0.16588085449284548;0.0941833201028687;0.00889249338477235;157.0;0.16700902143343396;0.08982087874953802;0.00809271796922035;163.0;0.17105396619267613;0.09717445132608472;0.009472866517890415;159.0;0.17820457996058836;0.09301787220762989;0.008680474414267905;162.0;0.17385384463461273;0.09951018962610786;0.009933713525678293;146.0;0.15786584266770956
0.0748935355433137;0.005626991320135232;147.0;0.1507497305468416;12.0;0.08361932371847346;0.007014939328249002;151.0;0.15406226937577006;0.08787789260814359;0.007747618350525422;156.0;0.15489309694825276;0.08415891789757854;0.0071057874952439514;157.0;0.15091415355591697;0.07528765597494243;0.005686540247677916;155.0;0.14460559450489766;0.06634783245437482;0.0044164980402189935;151.0;0.13888089418873945;0.06030734279802525;0.0036488093588353627;143.0;0.134869704199978;0.07111321205417746;0.005071939830418798;153.0;0.15239968250147334;0.06306557745041268;0.003990266443484339;148.0;0.13938567588903303;0.07295683996164208;0.005340155110888255;151.0;0.14609306714024417;0.07927012063229572;0.006303036725391829;157.0;0.15356625307197036;0.07942783339131171;0.006327674533415274;156.0;0.1531568139413727;0.08417923745898472;0.007108342231268673;158.0;0.15741250994468026;0.09449725089289053;0.00895607196132492;155.0;0.16479075407857813;0.08211357273749673;0.006763409497249925;153.0;0.15799403999285733;0.05394723215652762;0.0029198298374520275;152.0;0.13164798285451557;0.1068550368472619;0.011444537282162055;149.0;0.19577190743016995;0.11074599373662689;0.012293867555079354;150.0;0.19312211972860666;0.11334077849404502;0.012882006023382877;150.0;0.19200414160905785;0.10852973403430648;0.011814209389129245;156.0;0.1872736677706762;0.10391285434741607;0.010831191889235368;154.0;0.18270191509910338;0.10057618058319417;0.010145487589176626;158.0;0.17951811688847305;0.09974613975053631;0.009979146279553956;155.0;0.17893858277015787;0.10470265840240509;0.010978510437211084;149.0;0.19620420937226266;0.10023284140921719;0.010079502239783735;151.0;0.17556709849969204;0.10081363061919954;0.010196610377572095;154.0;0.17927804780953363;0.10409334912286707;0.01087076795166896;153.0;0.18514441328544015;0.10581424506796037;0.011232854171895797;155.0;0.1880704413570315;0.10491725036150273;0.011043139819629996;158.0;0.19515062238692604;0.11843311284285087;0.014071651190297482;153.0;0.2051852791271867;0.1089360847610553;0.011904895040985282;159.0;0.19816116399381778;0.10391922089314654;0.010834423729323552;142.0;0.17743030046715508
0.08038591532163827;0.006482672626434958;142.0;0.1540372347067964;12.0;0.08728473209637501;0.007643089418992132;146.0;0.15510533287608244;0.09117745514666888;0.008340069088991266;153.0;0.15513004489304916;0.08781481709929667;0.007736868909032061;150.0;0.15117061376601046;0.07941340013168122;0.006327345935036779;147.0;0.1450983135698613;0.07169404088699116;0.00515656335365504;141.0;0.13962500320647392;0.0663325659241977;0.004414265479282478;139.0;0.136575206614376;0.08013301821520666;0.006442357308493644;144.0;0.1588394580864978;0.07274667302995737;0.005305915585158093;157.0;0.14523432163873362;0.08221831598488996;0.006779862399318566;162.0;0.15239704806607282;0.09317011502980069;0.008707631813960847;169.0;0.16459466791430633;0.09278658816747998;0.008632795907875362;172.0;0.16519702565366964;0.09474645380425702;0.008999319309589663;165.0;0.17216197298300487;0.10330299923980392;0.010701560033318241;162.0;0.1772816720242758;0.09251253524442116;0.008579827748499658;161.0;0.17363369486636596;0.06321501355645125;0.004006318987748449;157.0;0.13779834752425318;0.11882269591555779;0.014163649973471639;141.0;0.20002513702551825;0.13093097048189775;0.017198435760187803;141.0;0.19820698749056515;0.13744421294549025;0.01895207876872839;141.0;0.19776360620896435;0.13129842265925692;0.017295139367882875;146.0;0.193130491309268;0.12364507206376482;0.015338096929923016;146.0;0.1878110603101819;0.11812815874725527;0.013999064956471144;152.0;0.18482122135273835;0.11542437505117988;0.013365851876914995;148.0;0.18403208520316353;0.11559384126737557;0.01340471065612568;145.0;0.20049761910290437;0.11650561966662176;0.013618091422800238;149.0;0.17843980737707704;0.12021485976468825;0.014499015141781937;146.0;0.18356763518308192;0.12082421910846115;0.014646410263484191;149.0;0.18844702982721329;0.1232061346106533;0.015229143066160467;151.0;0.1913258107745807;0.12630913228107676;0.01600618099991429;145.0;0.1999989590505335;0.1366850727679829;0.018743750761277544;144.0;0.2115971428756776;0.12944336881119578;0.01680908588835563;151.0;0.20907169080569776;0.11841624962833444;0.014068491059839199;144.0;0.17856036444030673
0.08263444242679609;0.0068507485023546165;140.0;0.1607553276620888;12.0;0.08791096480341935;0.007753087608256266;144.0;0.16048684072423736;0.09125802860274283;0.008354074624031607;143.0;0.16024978952640795;0.08849203925514264;0.00785534524293478;144.0;0.1562164411611245;0.08170418865992589;0.006696159229830676;137.0;0.15026391475026502;0.0754970244006972;0.005717478593172159;136.0;0.14532014790511094;0.07183245914925868;0.005175893583340747;132.0;0.14268415284288188;0.08564116023292495;0.007358382355762781;140.0;0.1618835633624272;0.07611014106936526;0.005811544644126923;154.0;0.151290134032419;0.08283129966567004;0.006883174754775572;160.0;0.15781013521056655;0.08946583257800601;0.008029775916716124;160.0;0.16634953612155412;0.08793420869548708;0.007757664826948853;161.0;0.1666490152389466;0.0895098378085381;0.00803823769846485;153.0;0.17396884637178642;0.09705952057689296;0.00945133084086589;155.0;0.17663603224014762;0.08787879582296448;0.007747923002076491;152.0;0.17404337706486203;0.06996990076585094;0.004911346769049395;143.0;0.14473504980357518;0.10458954152248626;0.010966455060515905;148.0;0.18710978107636583;0.11950679514930189;0.014311090379691895;146.0;0.1856763538880522;0.12818847527855573;0.016473071177419894;145.0;0.18447849317999318;0.12329787992125406;0.01524439691793313;148.0;0.18080902813318192;0.11529961423563888;0.013333965899099272;146.0;0.17531391935529783;0.10895582799039995;0.0119070711085429;149.0;0.17184321150960244;0.1050250662673715;0.011065376187809908;147.0;0.1699797972697673;0.10421465990460924;0.010888781348935037;152.0;0.18964107788051365;0.10721139603585875;0.011531875015466628;149.0;0.16728836017768306;0.10962131194798072;0.012055839441688917;146.0;0.17111192215207266;0.10977071494708657;0.012087087980407201;147.0;0.17583330990882573;0.11309452740522948;0.012829558621040424;151.0;0.17541882349672222;0.11855632824204028;0.014101450294572567;150.0;0.18249933497834256;0.1265005401736687;0.016053107405227897;153.0;0.19126774387822632;0.12200671941520516;0.014934062183974015;153.0;0.19463192024418866;0.10900546342367037;0.011920349334700063;143.0;0.16517899035607125
0.07961414647761647;0.0063574654363401225;147.0;0.1619563398202877;12.0;0.08521726411395604;0.00728363191816016;149.0;0.16236899614298425;0.08793940630973766;0.007756138793131617;146.0;0.16230396137538947;0.08544366250893888;0.007321107575000503;155.0;0.15804142620842943;0.08018558966072732;0.006448401284372597;151.0;0.15219696420803974;0.07473065936580105;0.005598441717586256;151.0;0.1470698283960855;0.07075189618500222;0.005017333195879503;143.0;0.144250202786083;0.08479644752076343;0.007212724216781868;144.0;0.16406042346288316;0.06768983731819411;0.004596491120562762;153.0;0.14747690034329106;0.07171054492600282;0.0051591956187576095;155.0;0.15233309610573167;0.0742033146561827;0.005523876672471094;153.0;0.15923188120765175;0.07281773714899474;0.005319708660145611;145.0;0.15825953255308442;0.07373875800690764;0.00545375223536609;154.0;0.1601621654683097;0.08205355472715357;0.006754798611919426;156.0;0.16913976305182613;0.07486296018720412;0.0056213307123894685;155.0;0.1693299049211287;0.06505450981345963;0.004244597553142794;151.0;0.14305925370232855;0.08987393193226188;0.008100750783178175;157.0;0.18191399407324452;0.10308629350964003;0.01065430733189929;157.0;0.18175204377442325;0.10966108842189301;0.012058914060618252;158.0;0.18101026209328264;0.10544079754268773;0.011148558445289095;161.0;0.1772432557045434;0.09762432127550785;0.009556835758848003;160.0;0.1714970854932494;0.08928383407096491;0.007993416804580458;163.0;0.16675668548906086;0.08413259854244333;0.00709889362836631;161.0;0.1638412553733019;0.0899516865563019;0.008113966216848414;157.0;0.18473265936625513;0.08007432874984366;0.006432901274663441;152.0;0.16189707578589183;0.08191014481608254;0.006730489860966296;147.0;0.16632757539409876;0.07762515542072859;0.006043255369850952;145.0;0.16757154225123286;0.07738132334873829;0.006005680347771243;145.0;0.16288397768556048;0.0867850315116413;0.007556059577292145;163.0;0.17109238581224948;0.10130266504400996;0.010295375107147946;165.0;0.1788245786849557;0.09913687296402607;0.009859797899093628;156.0;0.18180672172082724;0.08178800155613994;0.0067116146009640115;153.0;0.1619236535698966
0.07063414861405243;0.005004008580836328;156.0;0.14417850558406572;12.0;0.07628396631827958;0.005836781596339054;157.0;0.14400941875907658;0.07688215600288152;0.005928533863990706;155.0;0.14185058049596513;0.072679742535286;0.0052983439649337;157.0;0.13731550086875607;0.06728524455110116;0.004541833546287931;156.0;0.13206391503160023;0.06182255988960879;0.0038338689027421725;158.0;0.12823364777587934;0.05666694815430056;0.0032209869187490394;155.0;0.12551842547618605;0.06945817139628285;0.004839179039717889;148.0;0.14631457678171578;0.05379751984790931;0.00290352609762447;148.0;0.12934929596390635;0.058883542951469546;0.0034785805300806072;159.0;0.13455236334797807;0.06193887213807484;0.003847748266112;165.0;0.14249242687402874;0.055677638796541196;0.003109800285595914;148.0;0.1399523291350979;0.05889999564170467;0.0034792168197225336;156.0;0.1487514298738384;0.07357095746489495;0.005427481358441516;144.0;0.15860318358422804;0.06964183099274815;0.00486281395852391;157.0;0.1615367566170323;0.05045958768172431;0.002554252185407471;149.0;0.1245338107751592;0.10711981901208642;0.011505863890370897;152.0;0.184920976932421;0.11669557512664115;0.01364912011235197;144.0;0.1833361064301191;0.12104366344047622;0.014683393663787911;144.0;0.1826078430789522;0.11813894724415126;0.013991200267102395;145.0;0.17891345410737935;0.11162149291637714;0.012491483635825968;145.0;0.17357905041247942;0.10323186583190637;0.01068667577865341;146.0;0.1685904099399776;0.09833065553951338;0.009696655019274903;146.0;0.1660037795117465;0.10871719166122001;0.011854837255974702;146.0;0.18907834772022666;0.0971705860154215;0.00947294393841604;152.0;0.16642848325248855;0.10243852292816093;0.010527984392497351;145.0;0.17118762139136562;0.1005034105518897;0.010132365789653385;140.0;0.17353655659034534;0.09613418598237772;0.009267172398910088;135.0;0.17036580783299318;0.09666564904472656;0.009366081382221812;148.0;0.17307963277534474;0.10920572911868853;0.011952800168827108;153.0;0.18151984435830806;0.11250273313558842;0.012686538485563248;143.0;0.18737237419080965;0.09889101050337158;0.009810930914266144;159.0;0.1670848372809893
0.0466939080187126;0.0021837121288834738;164.0;0.10797485197036129;12.0;0.04925231647893475;0.0024293469082443606;163.0;0.10654273343545281;0.048176795675296105;0.00232560532586529;160.0;0.10276893014284107;0.04455672858559545;0.0019886215586521028;155.0;0.10062889388855427;0.04108811132431529;0.0016905218604231914;156.0;0.09766966896920178;0.037809986014486346;0.001431531263527589;156.0;0.09685438264743579;0.03477115691785875;0.001210533850999574;158.0;0.0951470238545069;0.04153815066909708;0.0017280905674060324;171.0;0.10779495831299551;0.03722033811158887;0.0013881135406475437;155.0;0.1007866720046148;0.04521303855526267;0.002048215442962157;168.0;0.10853143511288829;0.04860033909937855;0.0023686548357181652;164.0;0.11183300195445461;0.044571039500080935;0.0019927559889558045;160.0;0.11014090002834899;0.050889348943159225;0.002597430379135418;158.0;0.1207721441117777;0.06157662278046201;0.00380377639676195;141.0;0.12588912842630534;0.055042118471582434;0.0030384074980191827;154.0;0.12466649700481676;0.0326974402647153;0.001070989798996131;152.0;0.09367843449355609;0.10457170041475626;0.010969996845562682;152.0;0.18059634111994202;0.11844876661511118;0.014075116636519227;147.0;0.1849071266096136;0.1253502177819638;0.015762425219985898;145.0;0.18640807061454143;0.12136266797795427;0.01477617778113462;149.0;0.1816620787360939;0.11372803347966372;0.012975569820755388;150.0;0.17543776595154206;0.10491111974186465;0.011042039735746226;150.0;0.1694197600320741;0.10010478214552654;0.01005371880466988;157.0;0.1663173142571066;0.1058595900798603;0.011242508754605907;148.0;0.18312006888768248;0.11260252089651389;0.01271351255459994;160.0;0.17081174880491387;0.111326049330962;0.012416075331830895;160.0;0.17058795614007224;0.11323749859488234;0.01284920026877257;158.0;0.17594602444746377;0.11326098242368927;0.012860894444797186;148.0;0.17767223472132218;0.10930039728649667;0.011983647691041797;153.0;0.17729179857015123;0.11920871164318535;0.014257035735742836;158.0;0.18499088197295502;0.12048459096599481;0.01456380172721504;154.0;0.186924032180475;0.11903271046067225;0.01421159704824838;158.0;0.17170056957509727
0.0398206426126647;0.0015880885409348497;158.0;0.10519924732240862;12.0;0.0412011423947278;0.001700218499945415;159.0;0.10376882619268114;0.042919274159056345;0.0018460099485858579;159.0;0.1038454896748167;0.044213628499202;0.0019594191916204695;154.0;0.10553688978870086;0.0403778925694262;0.0016336841487645706;153.0;0.10208506736066764;0.03794422505079219;0.001442030507695407;146.0;0.1002485508517263;0.0370220364693111;0.0013725086122874882;143.0;0.09884729231492212;0.039069767658791575;0.001528168874930984;171.0;0.10632641113352412;0.042888898249830366;0.0018417669565874044;153.0;0.10532111280960303;0.04865108903949729;0.002373050165853255;153.0;0.11081825946395743;0.0478650115544367;0.0022977230233058427;159.0;0.11393428183931698;0.04855685788807104;0.0023637963633967706;163.0;0.11378781883168593;0.04695116024456495;0.0022036527868735394;168.0;0.11324995754727644;0.053589902597017715;0.002865943951005898;157.0;0.11896111417025097;0.05127965895945358;0.002626733043175992;157.0;0.11905107566727416;0.038091117910589944;0.0014517182190465856;147.0;0.1001029181355889;0.10140868648160738;0.010316768337296606;155.0;0.1737201682672882;0.11681966088246265;0.01368596366841575;158.0;0.1802198924545562;0.1250264677919125;0.015679186386147556;157.0;0.18266121900962387;0.1220672666900449;0.01494673879950218;161.0;0.17970195656044943;0.11473641913435138;0.013206695087333324;159.0;0.17485981330714537;0.10719792046969182;0.011528417808243199;158.0;0.16989313943205248;0.10326179133233232;0.010697516945552685;166.0;0.1670468290316484;0.09988052491436272;0.010008224674996465;158.0;0.17336781202155052;0.10808940592637677;0.011721088653745704;157.0;0.16640452168239966;0.10189846972075495;0.010417128865407466;159.0;0.1630041970017092;0.09866719403009634;0.009766916705628945;163.0;0.16399708024473045;0.10099527203313252;0.010232727372140153;151.0;0.16873002141720475;0.10489351267156576;0.011035917485338352;154.0;0.1749620746088166;0.11906788566203208;0.014218477458767262;152.0;0.1845291750332227;0.11610283021046001;0.013516693746140002;155.0;0.18083335109274795;0.11972982155659614;0.014381223712773028;154.0;0.17296828688691845
0.09124820225449251;0.008350942292685098;166.0;0.1420579679233991;12.0;0.09929096622307221;0.009887712024920163;165.0;0.14338972823653515;0.10235731491621004;0.010508833732406506;165.0;0.1445911947161536;0.09864101885607697;0.009759350764958267;161.0;0.14350306348192557;0.08898565194677961;0.007942601458715408;158.0;0.13724884180817545;0.0808941365142547;0.00656386151149748;152.0;0.13273702466597265;0.07620695686550154;0.005825469180097953;149.0;0.1297314914032202;0.08407011680034225;0.0070894299067686675;162.0;0.14183270770426643;0.07209410340561609;0.005214534604382887;149.0;0.13282922444818085;0.07502218719281369;0.005646730483267444;153.0;0.13604312358446077;0.07749210129136673;0.006024059873574001;162.0;0.14409740809023358;0.08107723517767175;0.006594315634881195;155.0;0.14722150979056128;0.0814768299940863;0.006657779401404723;160.0;0.14687649516425325;0.0890692926441186;0.007958802388972041;150.0;0.15087848983882526;0.08252861971225543;0.006833202906145192;151.0;0.149910352579509;0.0681980556969191;0.004666179459250208;134.0;0.12767465015169197;0.10571723766161574;0.01120685005527248;144.0;0.17960177344308392;0.11571845317454049;0.013435250909318061;148.0;0.18342528807472513;0.12289127175082719;0.015150716944169485;147.0;0.185110257915121;0.12171173487345037;0.01486051181703357;151.0;0.18283258118475956;0.11722987727067023;0.013783890073742694;149.0;0.1786294502155948;0.1125088292022681;0.012695388612883675;148.0;0.1746382292445529;0.11014347008763178;0.0121656432368143;150.0;0.17272153467340307;0.10337412271155828;0.010715061153863129;147.0;0.17936431265665068;0.09466041987018867;0.008968770477006147;154.0;0.16745237250181552;0.09251215875511162;0.008565509355078958;153.0;0.16828104037990346;0.09076824241786996;0.008251209503445014;152.0;0.1682268957557246;0.09098779666826191;0.008298593611593201;152.0;0.17066274060149642;0.09237266068685497;0.00855268494250655;148.0;0.17354273091655956;0.1060014923353673;0.01126256220819443;150.0;0.1818116494844719;0.10338726852724409;0.010714340539012759;146.0;0.18157821749308367;0.10191526209001676;0.010394681226632356;149.0;0.1732394695446044
0.09548678681775329;0.009139821458137685;164.0;0.14795031423617006;12.0;0.10478217998500368;0.011007555963960022;163.0;0.14993763894412301;0.10818469545956917;0.011730624600279476;159.0;0.15044604125806166;0.10311702988312152;0.010657993538240955;159.0;0.14734947528301467;0.09285672622475045;0.008644512301557676;162.0;0.14141595259765283;0.08359431020378989;0.007004203939899683;156.0;0.13672874157803322;0.07807702495246535;0.006110256961825102;156.0;0.1340634333942736;0.08949488476804018;0.008029659547932385;167.0;0.14821100836164203;0.07393624995856084;0.005482954246633278;146.0;0.14026435435392265;0.07688147049423441;0.005929599056868486;154.0;0.143096581605317;0.08496674700931564;0.007243003461188245;150.0;0.15027927378338748;0.08996962992890935;0.008120623190442025;148.0;0.15305713460357406;0.09270092450695361;0.008620196075641066;148.0;0.15360994733319303;0.10171166659770062;0.010378292942955801;148.0;0.1618373552388401;0.09270916316516149;0.008623068034157702;152.0;0.16056481012349905;0.07155986217984377;0.005137201774438815;144.0;0.13343872599154277;0.11294489720249909;0.012780954301112188;140.0;0.18885504896562536;0.13187928277270114;0.017431477607219623;142.0;0.20205804784012668;0.14091875653627348;0.019892433850425266;142.0;0.20769134935717837;0.1368547012934287;0.018763065700604046;144.0;0.20422439780908294;0.12748629510936507;0.01627865242596721;144.0;0.1956211971914701;0.11658688564924184;0.013610661313157553;144.0;0.18531542452051308;0.11053549370094701;0.012237808097417476;145.0;0.17998146836604753;0.10871758997679867;0.011845954633572665;139.0;0.18467350477222935;0.09331618205751951;0.008734959884635829;162.0;0.16888337121502944;0.101948625792194;0.01042716531686318;163.0;0.17825481017913425;0.10911764974096207;0.011944903980737099;159.0;0.18356812758197139;0.10288681912034368;0.010619247532900035;158.0;0.18240692200809142;0.08714309271349675;0.007615280991164766;148.0;0.17789445108416876;0.09622069496036317;0.00928140485705351;144.0;0.1827170198344554;0.09385110647165677;0.008834513910716818;148.0;0.18243967341277964;0.09345875507167317;0.008760787200181608;157.0;0.16742590155146078
0.08732589926605175;0.007648427423734374;140.0;0.152813843377983;12.0;0.09722220902840581;0.009480480938714033;140.0;0.1519382730697099;0.10244559952348856;0.010526644116079231;138.0;0.1519346061774615;0.09900961213743777;0.00983180635318478;140.0;0.14821055055263613;0.09022048079228559;0.008164763864922616;142.0;0.14236521509035444;0.08144720002348241;0.006653515468131071;140.0;0.1380774746972652;0.07569639707038811;0.0057478174250603;141.0;0.13555487524089843;0.08191074920165836;0.006729428848305101;150.0;0.1578889922875758;0.07591568685715637;0.005779994871549128;136.0;0.14652337126378834;0.07715317568239151;0.00596892636927872;131.0;0.1493094742744571;0.08513226983892602;0.007268807123102744;133.0;0.1565700721307195;0.08636988366825106;0.007482395999954655;141.0;0.1565672113370332;0.09152345029194536;0.008403364053788864;153.0;0.1642231464331561;0.10237691033873099;0.010514543355227843;161.0;0.16994358878926888;0.08973348714470587;0.00807754105065724;157.0;0.16573460426685743;0.07408177932439092;0.005505110473301384;145.0;0.14195230640878628;0.10336831331784195;0.010719781133665335;149.0;0.18081660842939318;0.12661252207470544;0.016082508415877207;150.0;0.19538963389079186;0.1360929375859058;0.01858183878905173;149.0;0.20110802134625505;0.13121516398345048;0.01727339656264326;147.0;0.19737935724144567;0.12030420123560787;0.014520351825559436;148.0;0.18833240713414834;0.1076744787983999;0.01163130103805535;149.0;0.1773911267101041;0.10041312021405674;0.010115745273196452;153.0;0.1714576689970794;0.10110058675624804;0.010254730341868433;154.0;0.17736941159149414;0.08667325666807028;0.0075363152294644405;147.0;0.1621310695219246;0.09700267168524203;0.009438928282217367;154.0;0.17211660895178055;0.10449774002677237;0.01095558570129084;146.0;0.180411584954301;0.0988274373274918;0.009798964472643777;140.0;0.17815703644456402;0.08818860874355552;0.00780258598591774;135.0;0.177444947848802;0.10029027254571239;0.010090143618571646;134.0;0.1824097721303209;0.09872559166870054;0.009778595043978924;145.0;0.18154519431211222;0.08755451371646517;0.007690277053706821;146.0;0.15990380939567944
0.10329648390072986;0.010704994563956625;135.0;0.166449206659064;12.0;0.11439138260580146;0.01312813983987248;134.0;0.1666400297030965;0.11926034929658963;0.014268867469923802;133.0;0.16657407360459692;0.11374592481557412;0.012980410572991662;132.0;0.16123392867662356;0.10268574475123747;0.01057881177796975;131.0;0.1535228135080757;0.09191100736399506;0.008475238042516852;134.0;0.14734833556494212;0.08467569673674231;0.00719303370909474;133.0;0.14291576289544194;0.09437136534519026;0.008934978553147767;140.0;0.1714311330485089;0.08220955194872412;0.006780160997496383;139.0;0.1510906436749733;0.08220372837793152;0.00677918992101602;138.0;0.1541932874899826;0.08445329751581522;0.0071556954763085595;142.0;0.16182606102033079;0.08460085634321377;0.007180250668779055;139.0;0.1617943449750929;0.09291107466701465;0.008658498260391488;149.0;0.17290962510454447;0.10318853467390943;0.010679060853091876;153.0;0.17802651167740172;0.0870832138621365;0.007607130501784922;160.0;0.1678086235371248;0.07709631948772726;0.0059626315418972176;138.0;0.1459610657139837;0.07216712287418837;0.0051654151723808705;157.0;0.1595705658738535;0.09079799977385154;0.00816338396061392;166.0;0.16979037699097865;0.09850114772723793;0.009635792830957005;171.0;0.17278010074503494;0.09559069945786598;0.009058845227053167;169.0;0.1694197720101272;0.08805004864492426;0.007687996774694152;169.0;0.16295506425811357;0.07925623346247093;0.006237003716396996;172.0;0.15565622805694956;0.07431944004887857;0.005481098285881177;173.0;0.15119199011444603;0.07209596082444104;0.00515565846810065;161.0;0.15943783144038068;0.06952026220110888;0.004848766983878477;142.0;0.14759241947452428;0.07158367419152417;0.005140999619891568;153.0;0.15176708248538523;0.07487567513185911;0.005624586990000861;149.0;0.1547562072983176;0.07520635385424274;0.005674447514360669;150.0;0.1525652070559621;0.07161377512817557;0.005145073627301728;154.0;0.15447461038644394;0.07952530869505402;0.006344231771524517;157.0;0.16014113516881182;0.08084705741771064;0.006556279698676026;159.0;0.16402824105349254;0.0749979203409632;0.00564249811682644;142.0;0.14909660123074364
0.08789095064848258;0.007749760350774687;149.0;0.15756900455697834;12.0;0.09305718712893057;0.008687105781176103;147.0;0.15724082539897186;0.0947570429565376;0.009008208589187905;146.0;0.15706706821618222;0.08936469153299272;0.008011783015016587;141.0;0.15117733926104052;0.08011824941011976;0.006439562690700044;143.0;0.14407313121720616;0.07098371866017565;0.0050549657913541626;145.0;0.13759556134305062;0.0649252230902408;0.004229048024595494;145.0;0.13293017257908435;0.08719605889045119;0.007627825366855701;145.0;0.1614391065314249;0.0628251621687985;0.00395969210686969;160.0;0.13630833446284224;0.06736272092537986;0.004552090459022474;164.0;0.14233121378141947;0.07441657384987643;0.005554074281669588;165.0;0.1539392482663943;0.07712884555679168;0.005967668950044097;153.0;0.15595808064431207;0.08283425908861224;0.006883539893658631;152.0;0.16232237454757312;0.09130020728899722;0.008355140919797959;142.0;0.17009712061518664;0.08026360990582912;0.006457839329726191;145.0;0.1623654548184073;0.056209284892190126;0.003169606648149046;154.0;0.1299584825453156;0.07664259620494153;0.005891922312811128;155.0;0.15911907852918486;0.0919951530258541;0.008489688140268228;152.0;0.16921168620277446;0.09842718645860024;0.009719319383604411;155.0;0.1715182112168429;0.09463543303275768;0.008984373355887695;154.0;0.16761546262593802;0.08567204543819355;0.007361527415800796;155.0;0.16002230631346823;0.07580857515060459;0.005764489561183139;162.0;0.1522803053438051;0.07074739332337764;0.005018680241497769;169.0;0.14722122144268482;0.07464554743989114;0.005587150932710138;151.0;0.1581321303564327;0.06817306487260347;0.00465737825033047;158.0;0.14410234619214524;0.07052216008802661;0.004986424878367894;161.0;0.14850943959366772;0.07418669744208686;0.005521343435347248;161.0;0.14823344052350845;0.0728756000127732;0.005328236988026395;163.0;0.14433167743116507;0.06676960244674776;0.004472721686708621;167.0;0.14482205451159574;0.07009795246579642;0.004929257606007387;163.0;0.1520312239121872;0.07370153269276886;0.0054492015360305575;159.0;0.15864549037416356;0.07645067065413724;0.0058533970121282435;164.0;0.14411976257895143
0.0716878996297745;0.005144298180903693;154.0;0.14985248471832377;12.0;0.06773630694559096;0.004592303560766798;152.0;0.14480120309836148;0.06532693243721024;0.004269278485357903;156.0;0.14331095733115282;0.061906336472144226;0.003835488695938165;155.0;0.13830134813036768;0.05733149154784591;0.003293149912844509;155.0;0.13275667429242125;0.05280475425921862;0.0027947082462972356;150.0;0.12860950874699162;0.049613420791805175;0.0024683289376780226;149.0;0.1254506866654188;0.08154200584868095;0.006656521191429585;143.0;0.15677055759518813;0.052071031278562635;0.002719580098499207;165.0;0.12887949964063494;0.05978370933661651;0.003585368684546577;162.0;0.13633561419885298;0.07432455864029763;0.005541625151037118;156.0;0.14800268288686683;0.0721785926160733;0.005225155978140907;159.0;0.14698335406008528;0.07830848461974038;0.0061520367932321645;161.0;0.15484491723154595;0.09089749533776934;0.008289434128195246;148.0;0.1598240561200105;0.08096516562051398;0.006576092714382885;145.0;0.15755959521223092;0.04908172468607439;0.0024165831884807674;157.0;0.12296436409850735;0.09049364152466034;0.008208302807306434;149.0;0.16209710409863706;0.09983267780185125;0.009990120861230422;139.0;0.16606185149824895;0.1042371079395033;0.010892615391643663;131.0;0.16677393524606368;0.10157622954629766;0.01034310058487833;135.0;0.16425906267438106;0.09488568352946614;0.009026557659239673;138.0;0.1587474008094673;0.08863922204572984;0.007875208740021422;149.0;0.15426177130925578;0.08629112801882675;0.007465818432372901;159.0;0.15257626279314168;0.09007272148808965;0.0081335058335773;149.0;0.16238415675235618;0.0955473175724077;0.009157807928762014;154.0;0.15782312251394232;0.09686906542193714;0.009410760643548231;161.0;0.1613485490797537;0.09702758069997561;0.009439897022146834;150.0;0.16030203453480069;0.0898221331164232;0.008091803277179925;155.0;0.1563859152889714;0.08223954364466854;0.0067851207619111726;164.0;0.15690219670095992;0.0889251443086121;0.007933483215059574;158.0;0.16472029400695642;0.0937734921391697;0.00882172858445828;157.0;0.17324325565711385;0.11023490118663613;0.012189358888800954;155.0;0.16399106548960976
0.07248452434335198;0.005270540508637174;142.0;0.14861071300503878;12.0;0.0695478698192162;0.004851890313985033;145.0;0.14282282763977122;0.06590385633175933;0.004356248974615002;142.0;0.13849045160009757;0.0608988091947075;0.0037193760029134485;144.0;0.13448168921845252;0.05586917377696206;0.0031310217062752686;141.0;0.13001419749871487;0.052190286792592334;0.002732066045358403;132.0;0.12771885450263634;0.05026635140433001;0.002534432213809827;135.0;0.12509477901359758;0.07739705557899505;0.0060095076226669404;141.0;0.15580784200481168;0.057093574490331964;0.003270075875577123;153.0;0.13293093967325673;0.06665101510186408;0.004456192411370354;144.0;0.1427823751400234;0.07913502831896964;0.006276331715367644;139.0;0.15087480067472245;0.07374212518298529;0.005451210489071228;147.0;0.1475558592133702;0.08061602957290175;0.006516960754157959;150.0;0.164763109259255;0.09477311748391054;0.009010487054821164;149.0;0.17105702073486317;0.08224685980217136;0.006786637540485924;159.0;0.1621792284636801;0.053994337218918775;0.002924116103942421;149.0;0.12514976920114076;0.07835471226486074;0.0061538962271140705;160.0;0.15769819428324333;0.08059430468134283;0.006509053496429029;147.0;0.1571327781361197;0.08227401686324512;0.006783549387084709;144.0;0.15759728334577147;0.08087094176806607;0.00655433199320983;148.0;0.1553566181100915;0.07755313520285924;0.006026873741924749;146.0;0.15152639050691663;0.0758567164904579;0.005764788686600274;152.0;0.149625393846337;0.07623588269920878;0.005821594016191301;151.0;0.15008580361471907;0.08070369202480863;0.006528723064402294;157.0;0.15891423380012437;0.10090350857168515;0.010208571015949386;148.0;0.16742290326893725;0.10161366400539952;0.010358120476489145;159.0;0.16877357127474654;0.09698833060375578;0.009437382000072572;149.0;0.16286742776158736;0.08852117947890961;0.00786152994097788;149.0;0.1586645793199013;0.08170505158488986;0.006696967889378869;157.0;0.16082921229489064;0.09142312856001748;0.008383268387437135;142.0;0.1709834012566399;0.09461978400512482;0.008979311220589873;148.0;0.1769397383278351;0.11313635052579754;0.012830644110092512;145.0;0.1724233429890813
0.0676970206692357;0.004591837193703656;141.0;0.1454267778816481;12.0;0.06585661529068605;0.004345677062028861;143.0;0.13917419737462228;0.06288590413426096;0.003959879946452387;137.0;0.1338361102818427;0.05760584553800512;0.0033232261116182883;142.0;0.13078123813189335;0.05108813322514938;0.0026153080429123987;142.0;0.12552644309581854;0.04623973560470016;0.0021429374284015756;142.0;0.1229201403536317;0.04326855079872025;0.0018759676770644714;143.0;0.12013555833798627;0.07599208930961401;0.005789138481707051;143.0;0.1535936809521892;0.05706014943152242;0.003266173219452408;159.0;0.133896960304105;0.07106197463825298;0.005066132640262125;151.0;0.14501698072778613;0.08502651282770657;0.007253128111422624;153.0;0.1567004534196757;0.07649895068338501;0.005871193272499638;153.0;0.1563291736013962;0.07791196803393013;0.006085519253970283;146.0;0.1708239771864779;0.08692895261121907;0.007574979015987939;144.0;0.1759957063053825;0.07628371848830223;0.005833804573072989;156.0;0.16456251282096332;0.051876073654904445;0.002699192446169219;150.0;0.1276947363814719;0.06612502035250542;0.004385707639596396;180.0;0.15725212869636823;0.07516863610202937;0.0056687089769459085;167.0;0.15994573041223048;0.07947654350239816;0.006337162565367172;168.0;0.1622896340111058;0.07788639436325172;0.0060860315682271975;168.0;0.15989671679202708;0.07282101532213826;0.0053200480925003875;165.0;0.15465874855432146;0.06874726391289547;0.0047411033900851395;162.0;0.15129582632325714;0.06763788979603283;0.004589583700936;158.0;0.15003319403077275;0.06933760323894596;0.004822612312779302;176.0;0.1585638229414126;0.08237256040775456;0.0068050907669567895;143.0;0.15935280512554004;0.08143411526418641;0.0066450922206342565;150.0;0.16145457232561483;0.07327608065509716;0.0053775622112796975;149.0;0.15634660192648492;0.0696470279885951;0.0048600988742960646;147.0;0.15160037496526016;0.0680388219108929;0.004641874536809897;157.0;0.15131342027873754;0.07679034941022973;0.005915399339896433;145.0;0.16218182786455806;0.07751705961846925;0.006027777476936857;148.0;0.16554786938377491;0.08957919910913936;0.008045811179101404;143.0;0.16094041110625237
0.048751927545329456;0.0023824813063604558;161.0;0.11635803823382314;12.0;0.04561258706119432;0.0020839853796924164;164.0;0.111080969475071;0.0436302000581044;0.0019059573455027755;172.0;0.10796273061515432;0.04089495533380445;0.001673456794487989;173.0;0.10682269416770854;0.03571513362846131;0.0012771554527919065;173.0;0.10231737536903938;0.0312763469229238;0.000979425116168162;177.0;0.09989171402933263;0.027853003993923618;0.0007772303758943889;171.0;0.09862715235908706;0.06036826075176215;0.0036546062580817286;159.0;0.12318906844822028;0.042219621288001954;0.001788292626407948;171.0;0.11169020851770166;0.05259427040158737;0.002775198621795638;154.0;0.11678740328358554;0.06529755677320134;0.004277659691106703;149.0;0.12594055714842772;0.057344365878331416;0.003299116183475307;153.0;0.1265862016981113;0.0567934727866969;0.003236040338007765;162.0;0.13150177780702654;0.06072218915540612;0.003699124573908831;158.0;0.13379462519113922;0.0538031567336959;0.0029042405983221694;167.0;0.12861812563688485;0.03897665883465977;0.0015240407475395417;156.0;0.1084615579794356;0.07697374374822237;0.005916873106485459;164.0;0.16054625284574073;0.08774494735862838;0.007685885546049952;164.0;0.16379337934377125;0.0923039294103609;0.008512057507045392;166.0;0.16515713964261527;0.09183031298254382;0.00842486124019628;168.0;0.1648235348021111;0.08651985568516989;0.007480706369544774;165.0;0.16017129888731477;0.07969341777329568;0.0063509588231486485;155.0;0.15574696084193687;0.07657378915149866;0.0058666117111397225;150.0;0.15307977030291914;0.08168083644474694;0.006666121820841926;167.0;0.16344671178493947;0.09615036813800115;0.00926410832089509;145.0;0.1652959282557809;0.09380110744516847;0.008821234433561899;141.0;0.1692885497557867;0.0832397007358453;0.006948548649836977;147.0;0.16358668372622473;0.07543447914493366;0.005705215950469136;156.0;0.1585429150714056;0.06758362387110337;0.004578620769931784;163.0;0.152007064889949;0.0745642453422328;0.005573620680945594;161.0;0.15905249634915822;0.07526761872447883;0.005673126227585477;163.0;0.16093027921329045;0.10042974060435536;0.010111542689406268;146.0;0.1619392930398756
0.02267798464059196;0.0005158728104617791;154.0;0.07922118622250497;12.0;0.019715955186508018;0.0003898585798865979;157.0;0.07626559931212787;0.018538486186408933;0.0003447831015012383;164.0;0.07560775306944717;0.018306150901972813;0.00033619643780709036;157.0;0.07479807943172988;0.01718069446495735;0.00029614088868147966;156.0;0.07368678974991065;0.015568410586147555;0.00024313485919319976;159.0;0.0723989884992027;0.015599120198160961;0.00024406035262283367;157.0;0.0731057747279231;0.0281897999998314;0.0007968818184062827;157.0;0.08348403104736127;0.018945789608141604;0.0003599760937876013;163.0;0.07316837978820245;0.0172870185014246;0.00029981617578170376;148.0;0.07111128760075539;0.01926617131434356;0.0003723518209226772;145.0;0.07210541119202828;0.02096893189590506;0.00044074845479950847;146.0;0.07384898907925704;0.02457631906738501;0.00060372787128031;156.0;0.07923488210416312;0.027652254595939337;0.000765971172187332;151.0;0.08305467048990513;0.026132355194232005;0.00068474664606469;157.0;0.08388934615740919;0.02287918913537963;0.0005241653357819861;150.0;0.0753010162264196;0.11351436191242231;0.012927726146531593;144.0;0.1769945906907611;0.1334894028946272;0.01787751499993706;144.0;0.18554933663179635;0.1430183762935057;0.020520586660805876;145.0;0.1900703662952218;0.14171932814899513;0.02014911069641723;150.0;0.18983734017678097;0.13316049800081228;0.017788636229881537;150.0;0.18488781134292656;0.12231778166617101;0.015010450147223513;147.0;0.1787880769410345;0.1169478249831781;0.013721611936716822;144.0;0.17554606467048106;0.11428782157876198;0.013104320088588483;146.0;0.17757038599124447;0.12375762974636449;0.015357190701925327;144.0;0.18413981421277414;0.11782562372961308;0.013914485636323188;138.0;0.1829151757894987;0.10513517054632779;0.011078866520805745;142.0;0.17267752380793439;0.0964492333000754;0.00932545138448695;147.0;0.1684942618104628;0.08822220814662327;0.007803879968089;141.0;0.168539920113784;0.09299509228587154;0.008669667169088829;142.0;0.17145364394095014;0.094169300435526;0.00889098435735887;151.0;0.17096464091903896;0.1267338251043175;0.01610981482921583;152.0;0.18242002917468442
0.018751054515976983;0.00035217273955290095;142.0;0.0793292013775915;12.0;0.015901518581802776;0.0002528839226856428;144.0;0.07562491077442807;0.014762831276373034;0.00021794520961864646;143.0;0.07492703735594056;0.013995427783873545;0.0001957607121541135;139.0;0.07285834578330017;0.014194179132151522;0.00020140436074449474;144.0;0.07312123027274402;0.013649207981282026;0.00018655648114308788;148.0;0.0730409274843723;0.014021319393845535;0.0001968742099461668;142.0;0.07273416237439206;0.02601919305105294;0.0006786307884599559;144.0;0.08493050934136714;0.015829666979198766;0.0002510488575951943;137.0;0.07189195872327564;0.014350546259510924;0.00020643763752288555;138.0;0.07061889497726;0.015235482538326376;0.00023287581592110808;140.0;0.07151924712945118;0.016533447612560346;0.0002742131843354015;140.0;0.07337832926569855;0.01979613526637108;0.00039317930240659;132.0;0.08032926162009174;0.02341681113988627;0.0005501513009104112;137.0;0.08340831235302958;0.023262450186221285;0.0005429041439595643;144.0;0.08400932752501049;0.017948012025806825;0.0003225781765358766;133.0;0.0742861730439395;0.12547181854968012;0.01573732738360441;135.0;0.18390539755807664;0.14424718160002875;0.020816131001762533;135.0;0.18974133986011266;0.15426312017397678;0.023808632168258362;139.0;0.19424076206515942;0.15191769133366723;0.023098520495934364;142.0;0.19345946797268398;0.14331140215143773;0.020557907851488203;138.0;0.1889346554501066;0.13311377391896806;0.017732843539424056;141.0;0.18324501078521208;0.1279844621559764;0.016389479945323967;143.0;0.18050731643467302;0.1241935675240093;0.015408298498779385;136.0;0.1831044193407074;0.12480425874038127;0.015622660703287211;143.0;0.18160519370225828;0.12014705242598614;0.0144800400358754;146.0;0.18080664735332233;0.10869702180318555;0.011853183741947569;144.0;0.17438549816764762;0.10412582393097727;0.010876913227146946;140.0;0.17086099046441128;0.10352870738945615;0.010752509322069342;139.0;0.17535108598693153;0.11045350816891182;0.01223850896734009;140.0;0.18098876576700562;0.11008993690696758;0.012156563976587178;147.0;0.18108791509158306;0.12491978753738055;0.015648770860938254;140.0;0.18352555940227305
0.01647455809767824;0.00027077334362080274;171.0;0.07934607588299077;12.0;0.015447908660191433;0.00023790124349203198;168.0;0.07822348756790873;0.015534843024614896;0.00024045061539379432;164.0;0.07805171179390738;0.015131922260334945;0.00022856512207882293;163.0;0.07700040422304756;0.015688644464826786;0.00024623662725922215;162.0;0.07726175014962529;0.016467504422702117;0.0002716302177403426;164.0;0.07979170285150697;0.016240526993926793;0.00026427710051070804;156.0;0.07870466482288965;0.017315665332387955;0.0002993974977121144;166.0;0.08128502559889268;0.02906790143268589;0.0008433951778514114;145.0;0.08248288770023188;0.029506457914679516;0.0008684853173004384;147.0;0.08132521960784814;0.03505311493171112;0.0012266468691114036;151.0;0.08433001362959833;0.030427928370578564;0.0009247763575825769;146.0;0.08483448870241461;0.01988544912139352;0.00039568442188228197;142.0;0.08583346875388011;0.02219997276139153;0.000494017290108569;148.0;0.08890262041272097;0.022144287518494656;0.0004919634680317363;157.0;0.08731675610871889;0.027767182391796597;0.0007707354026804293;144.0;0.08282413133410903;0.1091088844841987;0.011943910492642049;147.0;0.17707825326448454;0.12184414723330392;0.014894701301943043;151.0;0.18064038622564194;0.12831757486657583;0.01651783329576792;157.0;0.18392008288346975;0.12514114341341676;0.01571102978901597;158.0;0.18323566752921844;0.11764739929231073;0.013885929556360558;150.0;0.17875548074484252;0.10974817017629084;0.01208395193217158;146.0;0.17382312183906784;0.10531570134447132;0.01112782722024021;144.0;0.17083839409960974;0.1084072880112164;0.01179070988030631;142.0;0.1758213460446507;0.1104743069130908;0.012235313891484618;164.0;0.1801895542602074;0.10811825319198876;0.011719359089795298;163.0;0.17973970862831165;0.09892093650963357;0.009812350335060152;157.0;0.1752083707887144;0.09300797223670572;0.008673598741300347;151.0;0.1709015119354927;0.09317615908284317;0.008706265098865587;158.0;0.1723751435625305;0.10118533613554379;0.010264662654715543;155.0;0.17878946419933728;0.10104061171248661;0.010237511492753091;154.0;0.17808788895362315;0.11857430471575191;0.014100385141654423;149.0;0.18187228587938087
0.08333351427631291;0.006966789001702984;177.0;0.1340613966947064;12.0;0.08741729558305661;0.0076667460832566875;172.0;0.13502897222497726;0.08823751360032085;0.007811345200653294;163.0;0.13494192463659352;0.08526273907783942;0.007293304865922755;166.0;0.13341807813334514;0.08023254165687468;0.006458109145942046;161.0;0.13056526587704761;0.07555818855403029;0.005727406386977038;160.0;0.1285864937433725;0.07369139523646302;0.005447949097478197;158.0;0.12738774180325232;0.08082599381519738;0.006553807612140627;179.0;0.13441728158250338;0.08433469964896981;0.007135106234104507;157.0;0.13280698933753177;0.0794005538245793;0.006324025563579643;153.0;0.13256080369796266;0.07771627826060416;0.00605778110370263;165.0;0.1343404605068922;0.07893837634498392;0.006250001704813889;157.0;0.14196200774033843;0.09232045171582542;0.008550725236227874;160.0;0.15529527679189997;0.08949653616865917;0.008035816694574222;156.0;0.15271806478235056;0.07422182870957456;0.005526563484183794;163.0;0.13978407041706342;0.08541396205853673;0.007319263300695717;150.0;0.12901718623436204;0.09499076291924637;0.009028509667389915;166.0;0.17099515676553975;0.1106707758021014;0.012259919349357724;162.0;0.17970550540082944;0.1173895223298327;0.013799009616624818;160.0;0.1848671545620192;0.11446225380658069;0.013115530532406007;159.0;0.18380836236599388;0.10678714227313628;0.011404415028835173;163.0;0.17826981525067165;0.0990664742050772;0.0098117616880988;160.0;0.1723972410949005;0.09493219098548178;0.009004908780122505;164.0;0.16914570485358937;0.0937427545684368;0.008795817618868487;156.0;0.16818865398387048;0.1005346572195397;0.0101395809467467;166.0;0.1766835582068312;0.09801497619343273;0.009638325285694093;162.0;0.17554990652863342;0.09227015924777845;0.008541052069040185;156.0;0.17292759382370215;0.08794217986685528;0.0077588765299473495;150.0;0.17097035298865276;0.08825074516799068;0.007813204906801041;149.0;0.17213820288233853;0.0979785523329618;0.009630182873649576;144.0;0.17693650177797188;0.09770086749339572;0.009575892513116429;151.0;0.17631233607013788;0.11148990736790247;0.012464841982615594;156.0;0.18084355602420416
0.1020234030364692;0.010442486901741696;168.0;0.16255440042813732;12.0;0.1071121120312624;0.011510377608991972;164.0;0.16226144787883143;0.10871290885552633;0.011856878960800484;158.0;0.16094671285578643;0.10555499607941728;0.011177206678678284;161.0;0.15840618635776757;0.0991610784647327;0.009864361616998107;159.0;0.1543288927040269;0.09313688198156263;0.008701971381294506;157.0;0.1507828891449823;0.09078223872168167;0.008267095339580042;158.0;0.15016589536769873;0.10281531611366607;0.01060546508862016;167.0;0.1690052667010688;0.09802465720685616;0.009640233158101284;159.0;0.1565325984651687;0.09704876390670536;0.00944916300984184;150.0;0.15967744699351696;0.09363001583053272;0.008791707810357848;147.0;0.16019079819809684;0.09415954615786148;0.008891683577651101;150.0;0.16622046155774142;0.1118541624153473;0.012551673534795086;164.0;0.1822963116091551;0.11855830159014141;0.014099761342347875;166.0;0.18541662928628183;0.10104588911167475;0.010242290039820695;163.0;0.1719856638339108;0.10021786073937623;0.010076242726933677;157.0;0.15370571468147956;0.0802934569714945;0.006466227845290269;159.0;0.1643502631253059;0.08790071337985912;0.007748658410748088;148.0;0.16877028904617195;0.09189532305392897;0.008467994434057127;145.0;0.17128666976510232;0.08966084476401326;0.008062869163063187;147.0;0.16863402415794007;0.08506486499141921;0.007258987475412184;149.0;0.16219400744351573;0.08110186067301851;0.006598622021053525;151.0;0.1562640748748829;0.07989378071595431;0.0064038697974166305;156.0;0.15308793491424932;0.08233377039839897;0.006797212318049552;155.0;0.1651922901056991;0.09540056520379589;0.009130671625066557;159.0;0.16386658951161728;0.09417177377723587;0.008896645330363443;165.0;0.16817369179330935;0.08859889320513994;0.007875304296459955;169.0;0.166673857841566;0.08722456149865407;0.0076328318216793865;169.0;0.16610115896639693;0.0885470256297421;0.007866212934080826;153.0;0.16810627993431262;0.09886756866341237;0.009806208286332009;147.0;0.17569410170129204;0.10075428547633528;0.010183997920063309;152.0;0.1791588334010426;0.09872071954890976;0.009776978779708236;148.0;0.16541796915378718
0.08390380681861004;0.007062237752161497;161.0;0.15143814144254514;12.0;0.08891955865669594;0.007931373577030979;151.0;0.14966067572263272;0.09224676842182765;0.008536716047978553;155.0;0.14761769545351708;0.09038021586532367;0.008194742228170415;152.0;0.14419634597182807;0.08523704368919564;0.007288095459347428;155.0;0.14028480052870687;0.07979739398276443;0.006388024258483574;158.0;0.13793562870654344;0.07645584906180983;0.0058642445368549305;162.0;0.13712053605478677;0.08643600448210273;0.007494719677983908;148.0;0.1615112959111077;0.07981364041944951;0.006391037402893672;159.0;0.1491702545654494;0.08744125555036282;0.007670725302123245;150.0;0.15603785651157792;0.0925464693105954;0.008590588316395791;148.0;0.15891204011634494;0.08460354868935471;0.007176967841372442;150.0;0.1550271913174977;0.09005006189389482;0.008132952186382878;148.0;0.16340131263420593;0.10796320370530338;0.011686491056625985;147.0;0.17396077760876433;0.09256274612262595;0.008589683977305314;146.0;0.16970038639381058;0.08064828193894995;0.006523554108300442;161.0;0.1461668322562844;0.07549006509998699;0.005714213343877173;154.0;0.15645883297780253;0.08439376205507369;0.00713767657647706;140.0;0.1623080534147905;0.08928123866367406;0.00798688484684494;139.0;0.16399939272583908;0.0888165288806991;0.007903966887816263;135.0;0.1618568319048692;0.08542481436086247;0.007309374079795922;132.0;0.15679141923998588;0.08287970446047442;0.0068797451888695516;132.0;0.15293527883473224;0.08286236901426498;0.006878138149102104;135.0;0.15105697820570327;0.07875437995811659;0.006219180468576406;158.0;0.15943155968331507;0.10562136095259506;0.011188580183535073;156.0;0.16076081646228602;0.09886903552201605;0.009806754333666306;170.0;0.16290086944998436;0.09093875946916401;0.008296561084002164;171.0;0.15886059211891165;0.08652618038765666;0.007510974104251965;168.0;0.15642492064891053;0.0825159502452289;0.0068310026607806915;151.0;0.15475594530733994;0.09011638274190209;0.008147508681134046;147.0;0.1639879456057468;0.09965971137692545;0.009964507854103346;145.0;0.17390829538742855;0.12134932278060194;0.014769016492088104;149.0;0.16535547708250636
0.09376444875471039;0.008820201576983721;152.0;0.15853545391171045;12.0;0.0979568266660674;0.009626770496967132;144.0;0.15763904674642398;0.09995976294310628;0.010024434626656165;147.0;0.1552330550063075;0.09646106154263022;0.009335115365270267;144.0;0.15074191475071735;0.09078385061465438;0.008268639356768899;144.0;0.14669910285756277;0.08526473478517291;0.007293493479051678;148.0;0.14429788857700776;0.0806053816438637;0.006518463038059745;148.0;0.14233471757085536;0.09611480590573948;0.009268112283705995;140.0;0.1660015999053185;0.08068808901188802;0.006531504934181432;143.0;0.15061756726392983;0.0862529927873231;0.007463591453110037;140.0;0.15556222936423972;0.09505743019142948;0.009065488100917327;144.0;0.16353555654524726;0.08658795456621936;0.007521958108741575;152.0;0.1615641839067159;0.09498122316200044;0.00905044377082882;149.0;0.1705690280338077;0.11774211914206942;0.013903083834855763;141.0;0.18301109677172434;0.10103605702751706;0.010236048359649579;147.0;0.18171722694601086;0.07760937837051782;0.0060428137907278115;140.0;0.14631838389090032;0.07083203765473241;0.005033569598947229;154.0;0.1465034773132955;0.08021856235432426;0.006455914505837615;151.0;0.15226210098476092;0.08510270379400182;0.0072660804687425095;152.0;0.15469607354863818;0.08523755800991721;0.007289196464947592;141.0;0.15310437962631782;0.08179515807020829;0.006712324340316537;145.0;0.1489754061594281;0.07849754021065189;0.0061817773558011675;142.0;0.14633016005732194;0.07756672657657804;0.0060361771636146455;143.0;0.14597983456183342;0.071413104836405;0.005116392924257581;158.0;0.14730110532833018;0.08986215291066445;0.008098449103178142;151.0;0.14602466131256733;0.08257192971039774;0.006838286035282766;153.0;0.1458631428893486;0.08061826613897599;0.006519023421013804;150.0;0.14636060497073278;0.08013638016456723;0.006442059285569231;145.0;0.14603761285655092;0.07805618624046874;0.006112317663617053;147.0;0.14709970920735427;0.08581949234846592;0.007389072085900138;149.0;0.15634715269679691;0.09233338982534621;0.00855322274341047;145.0;0.1634105042724128;0.10761532885294668;0.011614001150439663;145.0;0.1548334644682477
0.08336758831251218;0.006968080847722009;148.0;0.15555252961549246;12.0;0.0853925319462429;0.0073087425756811954;144.0;0.15195893580538256;0.08623062605621386;0.007454415620942207;144.0;0.15036422820344253;0.08208211306136276;0.006754984281139634;137.0;0.14593865507073223;0.07666100683502784;0.0058921304309933545;135.0;0.14239806672012323;0.0723743112300438;0.005252045556023841;134.0;0.1403449307320366;0.06887877829234909;0.004757420190094783;133.0;0.13895875497868854;0.08709766971081728;0.007604588561493547;159.0;0.16425559293201303;0.07013294261589458;0.004930734334136822;139.0;0.14194295861212258;0.07083244491347276;0.0050271544186841245;145.0;0.14188074717854554;0.07730869445013233;0.005987394027039887;154.0;0.15170857908923158;0.07216684454609197;0.005219459827096765;162.0;0.15181172748184776;0.08342951805378458;0.006971294890348017;158.0;0.16340115230242536;0.1075561775583755;0.011586081388711278;161.0;0.18283718496345638;0.09615167230901768;0.009260629059920356;169.0;0.1794028791009535;0.06827230964253941;0.004670791018554273;136.0;0.1403113956575352;0.06370233372670675;0.004070856642695732;151.0;0.1384434613189668;0.06746913904003904;0.004565595095579971;149.0;0.13852373584303326;0.06998352511858642;0.004912197476135579;153.0;0.14017819468554849;0.06863364273874696;0.004724308406320928;155.0;0.1383962983290186;0.06516912974354906;0.004259870292407981;160.0;0.13438108608941535;0.06254967056406834;0.0039245966848820485;162.0;0.13305575811387602;0.06122413619234354;0.0037602839534690517;160.0;0.13300624731168076;0.06221623013575011;0.0038828606173325576;152.0;0.1384781525002196;0.05910161491040049;0.0035037985032182234;147.0;0.13506188528036248;0.05961237081124781;0.003564118380707588;144.0;0.13718891523739568;0.05792340137039267;0.003365481568777261;146.0;0.1384918067866897;0.05883319615420981;0.0034724004822077226;148.0;0.13666038693230304;0.06083265356615847;0.003711004081859402;155.0;0.14134338638596183;0.06433620889225977;0.004150247161569302;156.0;0.1477174421262039;0.06362099270895051;0.00405900696334599;154.0;0.14758405440932937;0.06722698015642817;0.004534046915043858;142.0;0.14254059761723734
0.05180475986522832;0.0026782726188392565;144.0;0.13842303515360996;12.0;0.05221139949950099;0.0027201837842298813;134.0;0.1326793683187903;0.05436306221655411;0.002949313718288794;134.0;0.13278138821155885;0.05270811918478427;0.0027719725470457097;128.0;0.12871107111066135;0.04998233250222055;0.002493942139820182;129.0;0.12604044113302323;0.04765635944983896;0.0022672651049632404;131.0;0.1237574056901483;0.046771106445571246;0.0021843207402442687;135.0;0.12307419377855357;0.057761288792811005;0.003340310214380548;156.0;0.1494296780045661;0.05801629777347713;0.003360599608437473;140.0;0.1352259558588147;0.060998713523626485;0.003722230148435177;150.0;0.13981291416133088;0.06502441419279421;0.00423788329397663;153.0;0.14712308812724176;0.05509683606042503;0.003043468861684987;153.0;0.14018504981988425;0.058815386213370485;0.0034698906346709085;150.0;0.15178143629334614;0.07384167889594154;0.005470413341666884;166.0;0.16528535318583384;0.06709368817536304;0.004515303126244601;177.0;0.15831286000547792;0.05999831219867031;0.0035917307461692106;137.0;0.13256759257236825;0.06403678584606533;0.004113417331606784;143.0;0.1392076302531027;0.06726541639408362;0.004539238013152408;137.0;0.13896723343585837;0.06899296479673492;0.00477469878008993;137.0;0.1384067916484726;0.06714063427154415;0.00452127505444806;142.0;0.13672881394349193;0.0642697371232484;0.004142815140529248;143.0;0.13424328964148866;0.06297024488025246;0.003976219789272709;148.0;0.13351687947232507;0.062406475480917115;0.003905382359932289;151.0;0.13267647266164273;0.06535141994450396;0.00428460781822238;145.0;0.1419398828285187;0.06484797655359381;0.00420468636209457;147.0;0.14040956288273657;0.06661889358481703;0.004440041358068664;150.0;0.14535591935990974;0.062521730241682;0.0039109041137933755;153.0;0.1465217862748841;0.06010034666172942;0.0036179625300405156;154.0;0.1449728209249736;0.05980210280199989;0.003585130922437491;145.0;0.14234532333768174;0.06166380920641865;0.0038124284773430497;152.0;0.14322260537616519;0.061864216757729525;0.0038389161007533336;159.0;0.145429906188564;0.0668777603292431;0.004473691459894925;149.0;0.1419042291104015
0.037806076072625434;0.0014315557252483602;150.0;0.10713461781633406;12.0;0.03733856774544317;0.0013957357454040577;139.0;0.10417063532464445;0.03802253471426553;0.0014480461555704356;148.0;0.10326237223103178;0.037637526157424;0.0014192613858089167;147.0;0.10061792351492324;0.03640618072197022;0.001328146886337388;140.0;0.09920820483188614;0.03489649511363306;0.0012207814240646814;151.0;0.09769275344391383;0.03447081190021483;0.001191113745539925;152.0;0.09746286459521879;0.045570778030652986;0.0020793486778283355;156.0;0.11483025401630492;0.04635309673774725;0.0021519159542668443;147.0;0.11016803637248618;0.051638598200041935;0.0026730871022161893;151.0;0.11710060496593272;0.051996664693704474;0.0027113175022643026;150.0;0.12032423272824364;0.04282480703018941;0.0018385005603368078;147.0;0.11550632423591642;0.04455351884817305;0.0019887104600091305;153.0;0.12371383372216121;0.05568788194435798;0.0031024438528127517;151.0;0.13143117124769593;0.050279609392223916;0.002530938000107253;160.0;0.12703749389750554;0.04681756444672186;0.0021958212491265954;135.0;0.10877294041366539;0.11786392108633384;0.013935938239032481;148.0;0.18021172844401906;0.1300559982361859;0.016969625538648257;144.0;0.18344502030689103;0.13628152129786708;0.01863312294670603;143.0;0.1832686133493451;0.13456482627414362;0.018166644886027553;140.0;0.17959887803793867;0.1306793126729057;0.017132765725709275;136.0;0.17607262501485813;0.12764986975950654;0.016347514419568443;138.0;0.1735374701188922;0.12672216490711546;0.016110667366126447;139.0;0.17265310992608823;0.11623499216064662;0.013552837888258415;146.0;0.18027058830671686;0.14376825236349808;0.02073592734832622;149.0;0.18167042354755303;0.12929137007311364;0.016770333267677483;148.0;0.1814306118484611;0.12885389020656698;0.016656977531845446;143.0;0.18181728829884042;0.12831849022264577;0.01651775538631839;150.0;0.18136193121399505;0.11743541479278401;0.013829275883668866;143.0;0.17985485668609022;0.11864748747827308;0.014111320445089932;161.0;0.18015823592951802;0.11563554491134301;0.013403782929070667;171.0;0.181269452624325;0.1562019280596816;0.024475346117809785;162.0;0.18201436155694617
0.023656974577244933;0.000560882189719545;158.0;0.08171221703195232;12.0;0.02357555342284011;0.0005573439044691486;154.0;0.08055949763035197;0.022775717775235762;0.0005202487820213863;165.0;0.07939952680584096;0.02145523988245279;0.00046177163063514185;151.0;0.0780871551202084;0.020372727275026942;0.0004162694402729397;143.0;0.07783296067713098;0.019237655689587577;0.000371075520547826;154.0;0.07751108898502568;0.018806093964320387;0.00035451531116738793;153.0;0.07713928753486093;0.02582536117649097;0.0006686765858189499;173.0;0.08308693796820656;0.021138084067471342;0.00044599887419235915;154.0;0.07462363028454239;0.021459382808053876;0.0004586608584675824;154.0;0.07462843293177356;0.019466529465344173;0.0003767082556170461;160.0;0.0758939598468126;0.020284108718330432;0.0004107501316248778;149.0;0.0796397734758041;0.02368287208024928;0.0005624511862690937;164.0;0.08569020622012988;0.032074308514713504;0.0010318778177025214;153.0;0.09511540734911335;0.031880415010194285;0.0010191932834425785;150.0;0.09781402548220412;0.02193758803027511;0.0004797059244008191;136.0;0.07491811211098182;0.12940065686934818;0.016797805268704176;168.0;0.19909371205579365;0.1415905424117119;0.02011087805985837;165.0;0.20267280455038508;0.1492907572757233;0.0223589198374521;168.0;0.203951157805176;0.1483656383552206;0.02208125847798809;166.0;0.20045558280357886;0.1443205086959941;0.020895592831166494;162.0;0.19603594201465105;0.14077590572676432;0.019881986144162925;162.0;0.19306451532970362;0.13978197575582116;0.019602273613158413;162.0;0.19308212989586765;0.1284708002352421;0.016558473860802836;166.0;0.19808710140892494;0.16032594595194913;0.025746560056949405;139.0;0.20321899963653167;0.14454305241696122;0.02092085496246814;131.0;0.19563011955720203;0.1400231564412332;0.019643716412690467;133.0;0.19333241535015164;0.13780536926022666;0.01902935361271895;141.0;0.1920062325876266;0.12625978813371302;0.01596248739886979;145.0;0.19368741060682884;0.13189110956251862;0.01741232302412792;152.0;0.19911377570158445;0.13311400788714345;0.017742759131545088;163.0;0.20267192153644256;0.17115429101142013;0.02936478810003716;159.0;0.20485195757054783
0.056194825341450316;0.0031673164819056156;172.0;0.11709225339545;12.0;0.05815503099307162;0.0033916993182137953;173.0;0.11611828828363027;0.05679263359327292;0.0032340662946095155;170.0;0.11530872160318074;0.05123162346475155;0.0026313835105843592;161.0;0.1112472107060109;0.04465225135183958;0.0019975951604092332;163.0;0.10795568394582412;0.04061297294866532;0.0016521611898127348;159.0;0.10616735188246895;0.038077294685923774;0.0014520800027238536;155.0;0.10377079551022103;0.053905410480987744;0.002914296437532231;175.0;0.11814371146382162;0.03878521122860122;0.0015023661494357747;155.0;0.10870235750324087;0.03762540693884499;0.0014141190956722524;162.0;0.11080411716275904;0.060878503409939125;0.003713562395013574;158.0;0.12169766613695723;0.07066883712996706;0.005006628474420126;146.0;0.12904666874580412;0.07655400477460597;0.00586936504329523;154.0;0.1386845306782193;0.07669139749277903;0.00588494038042635;154.0;0.13421100013234039;0.06449059124949079;0.004162419414932797;143.0;0.1275635568484174;0.03935952647937059;0.0015495449754139765;144.0;0.10163990847842884;0.09523357886924469;0.009098244779795994;160.0;0.17449955028091424;0.10342608928454118;0.010731939583160434;163.0;0.17858696016966213;0.10930864136998064;0.011987344767766542;166.0;0.17996376875116754;0.10799259853922683;0.011699322029115704;167.0;0.17632688058012796;0.10286384431374407;0.010615500196715123;169.0;0.1698234546510699;0.09829472676924236;0.009693438249508192;171.0;0.16553827498891632;0.09607208866134201;0.009259898625491939;178.0;0.16438758805042944;0.09836487400803846;0.009705678725179974;159.0;0.17840533323868188;0.10109136578689164;0.010248990084460927;151.0;0.17302433114308968;0.09942764452947492;0.009913170465852359;152.0;0.171908396491322;0.09571514334635514;0.00918112626888211;159.0;0.17238490874352472;0.09292572371553391;0.008656620083693395;159.0;0.1715711930622439;0.08678052942729081;0.007553702304486681;155.0;0.17131906308480774;0.09657397653824279;0.00935691400744365;157.0;0.17958391062187698;0.1016712757231133;0.010370767668738623;167.0;0.1845552691318787;0.10460564817233765;0.010977682127158526;155.0;0.17507904287607431
0.0842960647268635;0.007124867240724745;154.0;0.14537012305827907;12.0;0.08964362469518661;0.008056303391061656;156.0;0.14549577242562722;0.09045679592383898;0.008202636272394351;151.0;0.14484206733864122;0.0862613587522734;0.007458608055342107;155.0;0.1403633839025494;0.0793915656174558;0.006318051882501982;157.0;0.13521298081060376;0.07399321127761549;0.005487797017725196;151.0;0.1321889911217302;0.0708511890232061;0.005032236353532439;144.0;0.1298006101868061;0.08036045604403017;0.006475104575742931;153.0;0.14668170719574497;0.07165968996346776;0.005146642185177934;146.0;0.13906116545561742;0.07259425253239254;0.005283249308771873;157.0;0.14306141887307108;0.08648613870209372;0.007498790236042263;155.0;0.1532125344021119;0.09045237067061318;0.008201991388636554;141.0;0.15912421484128944;0.09300100843287466;0.008668863506109207;131.0;0.16972222236759846;0.09662483508472162;0.009354569469767185;134.0;0.16382242304536662;0.08538335883793643;0.007305562743300988;132.0;0.1538375740971522;0.06932462891149879;0.004815086710826793;140.0;0.13367006042832094;0.077777474209503;0.006068862195706557;159.0;0.15770139324732277;0.08877916217610704;0.007907564611814816;158.0;0.1622687268257041;0.09459040294296962;0.008976730613979045;153.0;0.16525678831227872;0.092692737759032;0.008620109760202836;152.0;0.16261741399171398;0.0873506482798981;0.007655137307718802;152.0;0.15619091877052554;0.08236484617931619;0.006806226473263128;154.0;0.1516082491273341;0.07941303407003511;0.0063267330714873;159.0;0.14952893780170978;0.08009449745698415;0.0064354469405157625;160.0;0.16190781543778776;0.06906841191959222;0.0047511140980754955;162.0;0.15183917184810566;0.07207770322174893;0.0051879313174425755;164.0;0.15815053127880713;0.07517731938895576;0.005657735508359385;167.0;0.15896049613500807;0.0769348509691698;0.005928314005956421;162.0;0.15756242643171067;0.07941928137353049;0.0063094908849630794;153.0;0.16209984191143842;0.09171206954760545;0.008413445000981637;159.0;0.172449841310539;0.09030500243571486;0.008156089327836496;158.0;0.17194496003379584;0.07759345074445499;0.006013578483569023;153.0;0.15426771512752505
0.09318045406035015;0.008710152392717068;136.0;0.15698295788613742;12.0;0.10178274263872243;0.010392766271135216;136.0;0.15851073652947034;0.10518325930724524;0.011098816505392253;135.0;0.1583896557006244;0.10176942894557452;0.010390568305861887;133.0;0.15289073990136293;0.09368568130549093;0.008805780141060471;134.0;0.14508210059372473;0.08649797089820192;0.0075062240029891624;132.0;0.13926136606888564;0.0824175896461573;0.006814504241879762;130.0;0.13562483029177533;0.08597855287964193;0.007416324679251886;135.0;0.1565726622698929;0.08703091500966303;0.007594020031680764;149.0;0.14611716803671426;0.09188342176405791;0.008467693971037285;149.0;0.1533846501390362;0.09778958508231807;0.009591292167284387;142.0;0.16006391911686446;0.09510717308375596;0.009072250443780643;124.0;0.16438555609272282;0.09494415558813954;0.009038160098792327;139.0;0.17575917541849637;0.10885350687450714;0.011874745092298982;141.0;0.17809579085787902;0.09551749383657294;0.009137854228955859;149.0;0.17161628017361105;0.0835002794319275;0.006991321497240685;145.0;0.14234635665029635;0.07778092924610544;0.006069621650577735;161.0;0.15887618119772728;0.08490926873515833;0.0072331370554067865;163.0;0.15926030200396804;0.08990120602761768;0.008108738873924765;155.0;0.16294136976079696;0.08889951387144017;0.007929008099730928;153.0;0.16196710891082816;0.08510647265644125;0.007266809397830361;147.0;0.15836540227735224;0.08133850721939999;0.006637331060333818;140.0;0.15493648289393352;0.07966724891862959;0.006367433779358172;140.0;0.15361151490395625;0.07728254802257642;0.005992154099362177;165.0;0.1590145603641681;0.0755009891118782;0.005719087140625793;154.0;0.15630447523797913;0.07407541387374614;0.005504610951591406;148.0;0.1583156272654406;0.0669257432890741;0.004491920400938147;157.0;0.15273669995638556;0.06463661197672106;0.004189310833429289;157.0;0.14850707152465698;0.0756073227270624;0.005732922581745996;143.0;0.15775066162686147;0.08827344909922294;0.007816870290169245;147.0;0.1662678554626012;0.08619793419971111;0.00745358262250108;145.0;0.16696619452277234;0.08507582611591263;0.007261611859801719;137.0;0.15854234994909103
0.0939047302928398;0.008841876026143879;146.0;0.16767059022534364;12.0;0.09918853425492437;0.009861740349087097;148.0;0.16729433657744416;0.10067697975025194;0.010157346623229643;145.0;0.16532897247396444;0.09588293019733551;0.009212468936370084;139.0;0.15928009791936065;0.08735262879221747;0.0076457362341601776;147.0;0.15241015868292465;0.08052984412779055;0.0064974772183400585;145.0;0.14789967315414704;0.07609579260743826;0.0058015987991255815;144.0;0.14378544767523527;0.09412617954770022;0.008882652102413877;146.0;0.1710761452307654;0.07814548527905317;0.006119261527472968;157.0;0.15056244954180736;0.08108309199226406;0.006586643067024673;152.0;0.15503428473157627;0.09218025102299127;0.008514438265976578;140.0;0.16424203490314432;0.09434877347571731;0.00892512305854326;133.0;0.1703613950261537;0.0990519503717176;0.009837358272264488;159.0;0.1796846008040374;0.11139239579687342;0.012438133008636703;159.0;0.18616752302413483;0.09331998268195059;0.0087286472665261;172.0;0.1815167618682475;0.07976324473857409;0.006368400514777426;157.0;0.148764456768165;0.07809027534560306;0.0061111997407864585;147.0;0.15643277596592192;0.08027061008191064;0.006458200155323063;147.0;0.1535908831899226;0.08292737037148623;0.006894422578048291;142.0;0.15461276660467152;0.0815621161731874;0.006668125702539941;139.0;0.15306926639211207;0.07830564505594467;0.006145498627382733;137.0;0.15057956956386387;0.07642926804035337;0.005852851790163534;134.0;0.14904802679471849;0.07622341843693776;0.005820280491549055;135.0;0.1491684246482004;0.07718065727443454;0.005972190627108512;150.0;0.15597977864218754;0.09213722064526461;0.00851476252871058;157.0;0.1620365726980296;0.0899263036664732;0.008111559999253668;149.0;0.1626249577755087;0.08081718935029866;0.006552730862678189;153.0;0.158203357842431;0.07174657090161035;0.0051642240516305785;157.0;0.1540280144620679;0.07521485644517491;0.005675788906807551;149.0;0.16102295241652434;0.0844308298786765;0.0071510851786518405;148.0;0.1677086659021648;0.07897611382570563;0.006256974962214029;156.0;0.16488434983249706;0.096777066415978;0.009393804776990509;146.0;0.16418809763343098
0.10030359006011132;0.010084795288326766;147.0;0.1739737709204911;12.0;0.10594047486217466;0.011249084780588498;154.0;0.1742422511125886;0.10734275976066278;0.011548843409624126;153.0;0.17085668317321281;0.10304943062357634;0.010645032054360131;152.0;0.16596282961564887;0.09605384862913278;0.009250647877334341;157.0;0.1605825954969687;0.09036623537243278;0.008188916331493344;155.0;0.1576490206281968;0.08563201745791497;0.007352524234001364;152.0;0.15508421761806748;0.09578693678181287;0.00919982393145348;148.0;0.1769975945186217;0.08854546088454852;0.007859878775530101;150.0;0.1602652474809551;0.0923636931549099;0.00855582506284277;150.0;0.16203213726891502;0.10634573737021927;0.011345939197180636;156.0;0.1731026418325406;0.10763202925190966;0.01162120513613446;151.0;0.17700949500223884;0.11850047093522391;0.014083625599878918;153.0;0.18446647235848807;0.14316835025289065;0.0205617278069647;155.0;0.19943824407044822;0.12385100179970873;0.015387590201183387;161.0;0.19472283721188482;0.08574209886027595;0.007368439330689117;147.0;0.15664923356140548;0.06552589231908731;0.004307452424087195;143.0;0.1410224944990956;0.06764412312618678;0.004590314409629239;136.0;0.13908508432251074;0.06949443925371554;0.004845283911790918;128.0;0.1391589780315608;0.06793521225524438;0.00463032825066181;124.0;0.13757077732709858;0.06530198533956688;0.004278304225782277;128.0;0.1351976317914265;0.06452744011086575;0.004177446034948376;137.0;0.13502299512346302;0.06516269651725534;0.0042601093210014075;140.0;0.13584626406528622;0.06427774091099189;0.0041448425878704625;144.0;0.14257960544116627;0.07864920229382223;0.006205767674943693;151.0;0.14959324986164838;0.07901447151878348;0.006263538288671039;150.0;0.1498464459823683;0.0741227581166492;0.005512079583543529;154.0;0.15000057774108327;0.06671217388491886;0.004464407379046798;148.0;0.14832903093832556;0.06883012508232243;0.004752123258455587;144.0;0.15649076400795503;0.07825476948168693;0.006142203277091624;151.0;0.16540481889972938;0.07328531632567045;0.005388291578710801;145.0;0.16283944554386998;0.07731267443855494;0.005996788870639783;159.0;0.1506001609338691
0.09616671175026123;0.009277782682332281;154.0;0.1708497733515409;12.0;0.10134028889787576;0.010303699281559298;162.0;0.1706151381633147;0.10324073786177565;0.01069391412998616;154.0;0.16610537212663548;0.09929177394774434;0.009891633009732129;154.0;0.16163233356286003;0.09184188574329669;0.008462974010659624;155.0;0.15547502334262853;0.08578670301562083;0.007383825233406373;153.0;0.15189323175902542;0.08133225445563093;0.006636825221089035;148.0;0.14975051105899126;0.09316263706112263;0.008707849590379643;163.0;0.17552566573254058;0.08824058921988627;0.0078120185814040495;163.0;0.1597645748603589;0.09603362043734347;0.009252704985535657;157.0;0.16548429289454367;0.10725688297648955;0.011541642014987037;166.0;0.1743729372793344;0.10621625214067971;0.011318719082056207;155.0;0.17644706237896887;0.1196386770362222;0.01435947257286433;151.0;0.1898411352741328;0.15856101296668493;0.02522307257645989;156.0;0.20810326648942098;0.14429759463080488;0.02088815810069934;153.0;0.20399082680468855;0.08165850727102911;0.006689491616075062;157.0;0.1537447428743283;0.06311412450104381;0.003982438091163958;153.0;0.13229561565172515;0.07020661508475558;0.0049275012187771396;148.0;0.13411589918530878;0.07413256677093193;0.0054933927227386785;136.0;0.13590039231220902;0.07249894811542179;0.005253945128290441;137.0;0.13411782539294553;0.0682433109511841;0.004656099114461466;139.0;0.13076548534942153;0.06441969593540293;0.00414790908213637;144.0;0.12830220076495608;0.06299517606183817;0.003966597791966346;147.0;0.12782776813749047;0.062206611007984275;0.0038687051205101423;154.0;0.13496263986310192;0.05298107084355963;0.002816130108998998;142.0;0.1331491336386511;0.05785338211837921;0.003358066142605494;152.0;0.13616579157131262;0.06084867671832021;0.003714594691149727;168.0;0.1391011148580066;0.06146733573702705;0.003790448980504914;164.0;0.14156261240937237;0.058467692523131796;0.0034295572296416817;149.0;0.14490740348751904;0.06341075768645592;0.004033917090971749;162.0;0.1546505812959439;0.0633401254286182;0.004024838744606623;154.0;0.15334246236854482;0.051571329101690155;0.002668087422345081;153.0;0.13326234086391198
0.08032190509260546;0.006472347432131063;151.0;0.15274939363755027;12.0;0.08536198433775953;0.0073105557326534135;159.0;0.15078521119619281;0.08825855386376756;0.007815103965949283;148.0;0.1474936472970809;0.08418306449624066;0.007109973016773024;145.0;0.14398144791794534;0.07597119670544823;0.005790455221206546;146.0;0.13909429022369088;0.0696856859484936;0.004871988574806167;150.0;0.1364016847597186;0.06570237153999668;0.004330811297184961;146.0;0.1348860990786674;0.08255148768961522;0.006836432837886451;165.0;0.15956605746431893;0.06646552080033695;0.004425919822058887;177.0;0.14512664545825818;0.07218181962782876;0.0052243952796400634;171.0;0.1546701987846679;0.0750212965731386;0.005645440993179617;162.0;0.16182883760403538;0.07082043044645892;0.0050305638708585745;147.0;0.16035109654078977;0.0853442164223622;0.007305272973419329;151.0;0.17597116935628743;0.11307253975568943;0.01282288816107087;157.0;0.18820078770259077;0.10592513966781629;0.011243322891565679;154.0;0.1829788971633931;0.06806115956888052;0.004636102189512811;172.0;0.14276535369550253;0.06165638917333765;0.0038109847694892318;154.0;0.1349420137579105;0.06566879790627035;0.004323518185458521;153.0;0.13377468371267806;0.06879589232495562;0.004745197248409814;150.0;0.13376732312792947;0.06778619418272713;0.00460656517162833;159.0;0.1320127475971498;0.0645498296105208;0.0041769718743571264;160.0;0.1291345004447307;0.061904411546254735;0.0038401278347134638;157.0;0.12735344531631987;0.061326040161054335;0.0037673182834059103;162.0;0.12818181038223572;0.06295366529210199;0.003972544414714323;154.0;0.13609475786623096;0.0565284206831431;0.0032053487930645236;153.0;0.13218585891353715;0.05716136399070122;0.0032771015701320203;167.0;0.1354431678129588;0.06048688058478183;0.0036700560426070165;180.0;0.13850587686007076;0.061299565933109194;0.0037699211407593225;179.0;0.13967828938410437;0.05689317605889935;0.003247373171011099;163.0;0.13644956889790616;0.06338606239457821;0.004030874601243063;170.0;0.14715789241384633;0.06661083763064946;0.004449888713561674;174.0;0.14824371557341626;0.06639305980613922;0.004422196041850492;159.0;0.1387428258324402
0.07242508871394449;0.005262537311544385;145.0;0.14115158832776248;12.0;0.07805008536064968;0.0061115665066809235;157.0;0.1394369105466573;0.08085327036318016;0.006558221746686065;160.0;0.13622002623002058;0.0775150092748707;0.006027019759810417;158.0;0.13302655894709983;0.0714292186908595;0.005118138432647857;158.0;0.12951158968595586;0.06611494055183924;0.004385003894909769;158.0;0.1285047473896531;0.06287252839939611;0.003965800819355893;158.0;0.12880625623565822;0.0706087997986566;0.005001751687933364;158.0;0.14446345272162925;0.06644522214865814;0.004429335869636373;159.0;0.1392009195880049;0.07050378856139143;0.004986973653965561;158.0;0.14784581372055597;0.0719555278734573;0.00519451305762758;156.0;0.15529704687386217;0.06940709114163156;0.0048330882028914494;146.0;0.15485057757314694;0.08566490787843106;0.0073624325386273445;155.0;0.1722757750651142;0.09826023053349543;0.009686545663437848;154.0;0.18339225657890315;0.08845555830005719;0.007848044499968312;153.0;0.17379044326141543;0.06986881446743042;0.004897618497048832;153.0;0.13850113115877163;0.05680434645417202;0.0032306827711315127;145.0;0.13646449498582644;0.05602924620188091;0.00314430134506838;150.0;0.13251883263901304;0.056937001181245964;0.0032457005021691255;160.0;0.1308318048375263;0.0583214344393561;0.0034020158545334457;168.0;0.13285480345350004;0.05677146434945591;0.0032217322131772187;165.0;0.1299996977798575;0.05639545328247954;0.0031822670958732728;162.0;0.12941196337280422;0.05746702038156075;0.0033064054588667724;161.0;0.13113490796400415;0.05801049389913522;0.0033687039752181742;143.0;0.13591535940737937;0.06477028908502791;0.0042088119079584305;160.0;0.1335541219125869;0.06090905170899216;0.0037219268384457308;163.0;0.13348347554575773;0.05620343724509349;0.0031691189649968067;165.0;0.13306444259072406;0.053044685421873565;0.0028226244197840132;164.0;0.13140146268215286;0.05484936394581195;0.0030177873736409234;156.0;0.13249233250848827;0.06515201586065796;0.004256018039452174;163.0;0.1409833412535105;0.06772374443942457;0.0045968075770285825;159.0;0.1432700823349939;0.08103358734407415;0.006587885425285876;162.0;0.1446413641335748
0.05117883170991555;0.0026276699172959436;161.0;0.11537650437303512;12.0;0.050603723263951815;0.00256840607194874;166.0;0.11247514469629484;0.04997113746108805;0.002504619974350144;168.0;0.10879817537699082;0.04872485394826445;0.002380709883930557;162.0;0.10624027611432002;0.04721136266935881;0.0022352130580816183;163.0;0.10466932947439887;0.04510317611214148;0.002040150991588453;157.0;0.10543351277220354;0.044126748799792184;0.001953334681290057;156.0;0.10673396646039345;0.057004607478037345;0.0032595482710750428;168.0;0.11927616645538475;0.05016657335169545;0.0025238700389026824;136.0;0.11202349184599028;0.05386105712491836;0.002909928464771862;133.0;0.11783047750445212;0.05393836620233419;0.002918836878377695;144.0;0.12176588985612644;0.05525156467142014;0.003062329731698652;158.0;0.12261537532228046;0.06591318975583248;0.004355517288546118;160.0;0.13495610897902863;0.07872377264693735;0.006216219850198701;152.0;0.14730664609876967;0.07434142654819251;0.005544440936890536;154.0;0.1413702837511188;0.05062866730059741;0.0025705227401921255;134.0;0.11004790797482941;0.06341026702850004;0.0040299675054378745;148.0;0.14595360158244272;0.0701132076396482;0.004926864429259565;153.0;0.14577904321772284;0.07184411399203115;0.0051707809134953955;157.0;0.14670682404388682;0.06957253593600524;0.004847667149891203;159.0;0.14918752315224101;0.06658229604501717;0.00443964876897617;153.0;0.1467643101046077;0.06578020221858273;0.004331425997468207;151.0;0.14599211347586125;0.06589468546102077;0.0043463019781612945;146.0;0.14670660011272393;0.06406862742975683;0.004115184942774319;148.0;0.1457166731958301;0.09513577643632905;0.009077543872009985;140.0;0.15706527163588976;0.09656239982194127;0.009351936987176743;139.0;0.1584533935066873;0.08639815133684765;0.007487025530044659;136.0;0.1522320135895741;0.07868789723960207;0.0062107770313796174;139.0;0.14923191271594247;0.07015414933583221;0.004937350370853451;142.0;0.14793888308226355;0.07707775451379034;0.005960227535789667;153.0;0.15273420783878294;0.07696419720261148;0.005940600050232485;143.0;0.1521026752138553;0.09395287828962616;0.008852544898091941;146.0;0.15806145065583285
0.04524582297274017;0.002047531158343094;159.0;0.10190178466430917;12.0;0.05010539551620383;0.002511611025179445;159.0;0.10296152569524561;0.05146681437232527;0.0026505137323834913;156.0;0.10345385988579307;0.04937440271358712;0.0024404270906166906;150.0;0.10127350524163165;0.04508774937008771;0.002036010723514038;152.0;0.0992284514497169;0.04054621019143839;0.0016466547926774877;146.0;0.09662583028952033;0.037386197934770715;0.0014002786447253526;148.0;0.09547343110956454;0.04000530866694237;0.0015996632632486697;156.0;0.10153590566450595;0.036684428168481324;0.001349455813112536;144.0;0.09897464604201855;0.043298006442894915;0.0018789863351422829;139.0;0.10532416256080407;0.04562805315085368;0.002086422633466909;140.0;0.10876404880976111;0.045421422238463634;0.0020671833679767014;154.0;0.11078245347486049;0.04883211840542203;0.0023884458226479015;154.0;0.11964037286268928;0.04938678461098756;0.002440057058125168;154.0;0.1228809311652749;0.044161883206998154;0.0019464350623687658;158.0;0.11344311157394496;0.03184808371792505;0.0010174871581475604;147.0;0.09279712445437231;0.0980095053469495;0.0096369529333405;166.0;0.17183858081186448;0.12455334397526005;0.015561181782279073;163.0;0.18147535567900527;0.13637523344026886;0.018653083358706173;154.0;0.18608669985498183;0.13311754769196427;0.017772187744592802;153.0;0.18527554672815086;0.12558128395283374;0.015819755648983254;152.0;0.18151232013180219;0.11791759111838902;0.01394790375020547;154.0;0.17786354993638043;0.11432002604755424;0.01310908137353246;158.0;0.1761102240297987;0.09583753966632991;0.009214901464551483;160.0;0.17074556806574567;0.12712274786881408;0.016213003221200555;144.0;0.17323834999983476;0.1262734181147206;0.015996476507377625;145.0;0.17639769315727488;0.11379787101345633;0.012992149292730617;149.0;0.1691007447819899;0.10360361711212465;0.01076878119989256;153.0;0.16415556259440617;0.09517472532671141;0.009087802650966936;138.0;0.16165955725387238;0.10156841285647944;0.010349863600344513;137.0;0.16679709868274306;0.09865588145100207;0.009764736343497232;136.0;0.16715692381204714;0.13164621072611343;0.01738589703710547;150.0;0.17387578569987303
0.063529670260976;0.0040481246522701565;151.0;0.13485301403932673;12.0;0.06676078094446333;0.004469775020866178;153.0;0.13465485462335886;0.06764572780737248;0.00458863318423166;152.0;0.13358887577206585;0.06476754415771634;0.004205776406684658;148.0;0.13036502807530467;0.05983494973885927;0.0035892902936473163;149.0;0.12713740379755656;0.055079085638008195;0.0030421331127879732;150.0;0.12355406519787997;0.05149951116038036;0.0026601225211106715;156.0;0.12099686994206803;0.06384836086986878;0.00408807282174874;148.0;0.13710497066026087;0.05365564052565905;0.002886819106173042;162.0;0.1280329596931582;0.058914774696686996;0.00348049355516942;162.0;0.13416876787115098;0.06221812499217546;0.003882189665238138;156.0;0.13963561303408958;0.0653634452343722;0.004282311051825121;147.0;0.14486231789511464;0.07168938137787831;0.005146366924833807;147.0;0.15471266514917947;0.08217119689962755;0.006763541843478667;142.0;0.15832515437104308;0.07180052021028678;0.005166894622174782;152.0;0.1474117934544426;0.04898264529100922;0.0024064965702335047;164.0;0.12174662211911769;0.10823516381413491;0.011738699591609907;161.0;0.18265710736028096;0.13911097592399457;0.019391265573851384;159.0;0.1926615006069622;0.1548283571246965;0.02402159262475549;150.0;0.197855805548957;0.15328733042158493;0.023544097326153698;149.0;0.1960187123425001;0.143298704513315;0.020575712840949372;152.0;0.1895284668075125;0.13185002590083852;0.017420092988659076;154.0;0.18328672510548133;0.12638461752048905;0.016012267097796518;155.0;0.1804105744151906;0.105567246865159;0.011171091666073517;159.0;0.18276398697447416;0.13567590800489782;0.018467093379096258;148.0;0.1797659159052515;0.1331280570022554;0.01778085038623891;151.0;0.18298259036804096;0.11825078039781954;0.014028711610463807;159.0;0.1742821590141118;0.1072861787009872;0.011547111810180678;160.0;0.16781483525047544;0.10256364472878685;0.010552413386306136;148.0;0.16890032459247342;0.10807103864734012;0.011715683525558754;140.0;0.1736141866154718;0.10576222614799607;0.011221693395024936;149.0;0.1744597952527657;0.1372233698207136;0.018891029912306023;155.0;0.17786392428453185
0.0691917453924527;0.004801940107258005;153.0;0.14489761368901996;12.0;0.06804053176320861;0.0046441183617837445;153.0;0.14130275003762055;0.06717726076887551;0.004527360361488812;157.0;0.13898740715292082;0.06403285739719225;0.004113597832614386;157.0;0.13512696410712607;0.05977571650325774;0.0035848178958275824;158.0;0.13128360019487606;0.05618450867303049;0.00316703175416877;162.0;0.12848419336723638;0.052655978572588885;0.0027817303266716243;165.0;0.12550865700392846;0.07520147769200239;0.005669614343201458;152.0;0.15016449647427507;0.05572630487001959;0.003115475776438445;163.0;0.1299135628060212;0.05916493096879166;0.0035114080104181006;165.0;0.13521743072952608;0.06513061814421162;0.004254375731815163;154.0;0.14436179559456666;0.06767818926059217;0.004593530233383581;146.0;0.14768905710480562;0.08264651810780946;0.0068521855365175546;148.0;0.15509210087148967;0.09267584583088251;0.008615155372504577;144.0;0.15845895542253438;0.0821933813263235;0.006771419107384283;153.0;0.1538363994222293;0.05124554160650762;0.0026346986776822133;162.0;0.12427901483747854;0.10457868802573893;0.010972394149234795;152.0;0.17699989145006614;0.1239670345213125;0.015418019778084005;151.0;0.1839398941717403;0.13364608171119746;0.017919053360534613;149.0;0.18695579782695895;0.13073850570586823;0.01714606283935301;147.0;0.1847361475507098;0.12113598709144285;0.014720006507003851;148.0;0.17739805082804658;0.11109913415100361;0.012382697137292129;147.0;0.17082910974879326;0.10707536839687347;0.01150233697838559;146.0;0.16884915753821264;0.10139336660383973;0.010314023213603554;150.0;0.17392897768890572;0.12087878575125166;0.014657958115787536;155.0;0.17185649974975536;0.11913434492095364;0.014238267070523027;162.0;0.17421301284057097;0.10911293045370984;0.011943216147787724;168.0;0.16906707890855605;0.1019503654743991;0.010426416865664053;162.0;0.1667356881447899;0.09886770913353829;0.009801876500040984;164.0;0.1722736673064375;0.10637484237076295;0.011345532058144349;160.0;0.17875976109257088;0.10728818660613729;0.01153435710826254;163.0;0.1779719735011174;0.11599786505351727;0.013490488655311841;160.0;0.17172332447901292
0.09030989156030016;0.008182473577242841;148.0;0.1630045290792805;12.0;0.08907554467865988;0.007960383373271773;147.0;0.1574469829191275;0.08852961671887655;0.007863115682571033;149.0;0.15370744424991056;0.08552861864644261;0.007338387549019708;153.0;0.14923750038614686;0.08029032098521274;0.0064670729752291335;155.0;0.14533336802282185;0.0760880294139779;0.00580727638472685;157.0;0.14271776873885256;0.07263511361126548;0.005291664894170903;159.0;0.14077478900474594;0.0952806596119301;0.009105415054379297;154.0;0.1715371374609298;0.08390759468413568;0.007048088916375919;159.0;0.14673278606480183;0.09009764790073548;0.008126224954866043;152.0;0.1522392472760825;0.08736967309400463;0.007645038336725474;147.0;0.15659875551795088;0.07386403897776242;0.0054610876372747225;140.0;0.15250843453475446;0.08518131129512047;0.007272732821261332;156.0;0.16291201193208107;0.0873877016127688;0.00765377858855192;162.0;0.162281114506954;0.08375758111092162;0.0070260306602371505;168.0;0.1624856563396784;0.07747290585785689;0.006013362785974862;159.0;0.14220386529677442;0.0888275231333118;0.00790817555781007;162.0;0.16635116535129105;0.10237115273058818;0.010500943540879396;157.0;0.17459554291993867;0.10815698008129165;0.011719272803142593;154.0;0.17712591014485163;0.10422965735034045;0.010882378152193478;151.0;0.17432795737921966;0.09601611876316128;0.009237342572729174;148.0;0.16676313925238956;0.08843376683978403;0.007834756934296838;145.0;0.15984108182799736;0.08596017262791204;0.007406080857743814;145.0;0.157331848001641;0.086188674891027;0.007450728359239269;164.0;0.1641859168499852;0.09290573280622783;0.008651929198417323;166.0;0.15193432346228158;0.08884653785187505;0.007913530796219665;171.0;0.15258175837918667;0.08567965265505573;0.007357407731356403;173.0;0.1549294542061759;0.08421545512972997;0.007105036233750588;169.0;0.1571232596343079;0.08446962261780167;0.007146912378047994;167.0;0.16247209346918376;0.09519262179323336;0.009076966295041978;166.0;0.17013097747877073;0.09960812795317216;0.009937368357820666;166.0;0.17196679809185464;0.0978506675911846;0.009592449736823584;165.0;0.1571090240229241
0.09383460554688643;0.008833483737835948;153.0;0.16819133313914328;12.0;0.09495609511335827;0.009044764036790361;152.0;0.16431234818060178;0.09598922733283469;0.009242694882885958;149.0;0.16164754674551496;0.09382393063766065;0.008830128374562223;142.0;0.15788628742046842;0.08894436905139474;0.007936311949690062;143.0;0.15396337348451286;0.08396816264590799;0.007073364458988364;144.0;0.15107257339364463;0.08015832047959937;0.006445805590084792;147.0;0.14883550696832407;0.10299619220075709;0.010642504397404872;159.0;0.1814898500387271;0.08978280930714802;0.008087035192197776;154.0;0.15292611083376265;0.09607840188926475;0.0092612027094903;149.0;0.15816197999440257;0.09313055699946206;0.008701635908728326;157.0;0.1597455826958065;0.08190381307962215;0.006729985349865432;150.0;0.15546520777259412;0.08869174668300416;0.007890647023665036;151.0;0.1664588195662032;0.10031035357512438;0.010094815840638113;158.0;0.1694234363532315;0.09488385209880698;0.009032320762577074;166.0;0.1724202885142571;0.08477451625656056;0.0072100523404649425;154.0;0.1507143590608514;0.05983928055023331;0.0035911648463719044;160.0;0.1490524855897258;0.07009544837111757;0.0049256054492021655;160.0;0.15484961251001364;0.07610233492786994;0.005806245832400135;159.0;0.1589568001010557;0.07425250477229943;0.005526076607960502;156.0;0.15587242573912405;0.06803765945055154;0.004641276411364003;148.0;0.14939224809685298;0.06222687280890056;0.003882919908863813;148.0;0.14278920287280233;0.05974610412662319;0.0035799764535976463;144.0;0.1396474220035018;0.06168093944969641;0.003815580181885377;162.0;0.15128911754958788;0.06857517716612821;0.004715467375093655;158.0;0.14523170109907177;0.06957740774293317;0.0048547891898966375;165.0;0.1492987337565026;0.06826624766395974;0.0046743855938284964;154.0;0.1513306980172931;0.06918218855334464;0.004801456120665661;153.0;0.1503938988845578;0.0756903728729499;0.005747611777173003;159.0;0.1543160516922247;0.09180039197728161;0.008454555529273013;161.0;0.16403576773367504;0.09554724338419396;0.009155166459856456;158.0;0.16845234913233498;0.07250346662944887;0.005269943846390953;153.0;0.14634311517489296
