rms_s1_ch1;var_s1_ch1;zcr_s1_ch1;wl_s1_ch1;rotule;rms_s1_ch2;var_s1_ch2;zcr_s1_ch2;wl_s1_ch2;rms_s1_ch3;var_s1_ch3;zcr_s1_ch3;wl_s1_ch3;rms_s1_ch4;var_s1_ch4;zcr_s1_ch4;wl_s1_ch4;rms_s1_ch5;var_s1_ch5;zcr_s1_ch5;wl_s1_ch5;rms_s1_ch6;var_s1_ch6;zcr_s1_ch6;wl_s1_ch6;rms_s1_ch7;var_s1_ch7;zcr_s1_ch7;wl_s1_ch7;rms_s1_ch8;var_s1_ch8;zcr_s1_ch8;wl_s1_ch8;rms_s1_ch9;var_s1_ch9;zcr_s1_ch9;wl_s1_ch9;rms_s1_ch10;var_s1_ch10;zcr_s1_ch10;wl_s1_ch10;rms_s1_ch11;var_s1_ch11;zcr_s1_ch11;wl_s1_ch11;rms_s1_ch12;var_s1_ch12;zcr_s1_ch12;wl_s1_ch12;rms_s1_ch13;var_s1_ch13;zcr_s1_ch13;wl_s1_ch13;rms_s1_ch14;var_s1_ch14;zcr_s1_ch14;wl_s1_ch14;rms_s1_ch15;var_s1_ch15;zcr_s1_ch15;wl_s1_ch15;rms_s1_ch16;var_s1_ch16;zcr_s1_ch16;wl_s1_ch16;rms_s2_ch1;var_s2_ch1;zcr_s2_ch1;wl_s2_ch1;rms_s2_ch2;var_s2_ch2;zcr_s2_ch2;wl_s2_ch2;rms_s2_ch3;var_s2_ch3;zcr_s2_ch3;wl_s2_ch3;rms_s2_ch4;var_s2_ch4;zcr_s2_ch4;wl_s2_ch4;rms_s2_ch5;var_s2_ch5;zcr_s2_ch5;wl_s2_ch5;rms_s2_ch6;var_s2_ch6;zcr_s2_ch6;wl_s2_ch6;rms_s2_ch7;var_s2_ch7;zcr_s2_ch7;wl_s2_ch7;rms_s2_ch8;var_s2_ch8;zcr_s2_ch8;wl_s2_ch8;rms_s2_ch9;var_s2_ch9;zcr_s2_ch9;wl_s2_ch9;rms_s2_ch10;var_s2_ch10;zcr_s2_ch10;wl_s2_ch10;rms_s2_ch11;var_s2_ch11;zcr_s2_ch11;wl_s2_ch11;rms_s2_ch12;var_s2_ch12;zcr_s2_ch12;wl_s2_ch12;rms_s2_ch13;var_s2_ch13;zcr_s2_ch13;wl_s2_ch13;rms_s2_ch14;var_s2_ch14;zcr_s2_ch14;wl_s2_ch14;rms_s2_ch15;var_s2_ch15;zcr_s2_ch15;wl_s2_ch15;rms_s2_ch16;var_s2_ch16;zcr_s2_ch16;wl_s2_ch16
0.015668024079013593;0.00024613243897655485;157.0;0.06763085582029868;12.0;0.017405960090732784;0.00030382289295653053;160.0;0.07208831906771644;0.02363124244221193;0.0005601056724907468;155.0;0.07818034063850397;0.022975479859328737;0.0005295207836943774;149.0;0.07500224636535742;0.018314736539955682;0.0003365461682119658;162.0;0.07442984436661408;0.015075707472580047;0.0002280224503135149;154.0;0.07168891480469611;0.013999997949586488;0.0001966198200326525;148.0;0.06855706728821158;0.008946138787354077;8.026927155397493e-05;150.0;0.06569390481204489;0.010867183677060941;0.00011839834232987113;165.0;0.06243441814688221;0.01055022462658969;0.00011158275291699598;160.0;0.06250062946288354;0.010847876154040958;0.00011800034330791464;163.0;0.06394154659883779;0.011222315599956303;0.0001262817808075156;162.0;0.06439924156255811;0.01069503844546678;0.0001146685736118937;155.0;0.06451320309011437;0.010907321319364005;0.00011927340004908317;160.0;0.06362412271748431;0.011438983012446322;0.0001311815491738162;168.0;0.06538762244619162;0.011866687359730975;0.0001411696488905172;159.0;0.06399085171620823;0.09195540100957428;0.008473639046442738;157.0;0.1572612761763597;0.09124213915626671;0.008340038985966929;162.0;0.15651514341661027;0.10580545498145112;0.01121611477328981;150.0;0.1620587912443344;0.14238394016099662;0.02031439887234701;144.0;0.1893513705787503;0.14795410755590455;0.021928182780883147;152.0;0.19013095613523587;0.1199721958059869;0.014420947502630083;141.0;0.17154601733321956;0.10334545358554334;0.010700587961768999;144.0;0.15926755378866994;0.0890145514892595;0.007935137519011315;149.0;0.15289559265821875;0.09039317683358604;0.008188074317445485;146.0;0.14932369538058912;0.08964863264024375;0.008052905965096476;158.0;0.1482146320780729;0.08960386915816175;0.008045264415343372;155.0;0.14764164497999221;0.09037076959825868;0.008182921392059067;144.0;0.14809218334460694;0.09067442537114496;0.008238296988075417;147.0;0.14754429945969125;0.09410108069417496;0.008873395678031753;149.0;0.14619556694107738;0.10472389043124049;0.010991577664164762;144.0;0.15064584987368926;0.09567710439892106;0.009171385015191432;152.0;0.15124341517362735
0.051885079266922374;0.002697669319442678;146.0;0.11546323406107452;12.0;0.06453121630643373;0.004174148397671058;150.0;0.12564768581801253;0.08435028825935703;0.007136329392659367;151.0;0.1341046684670843;0.10038095187017322;0.010109069512861247;157.0;0.1383359256836987;0.09403936428772788;0.008872148004759623;166.0;0.13833370856439736;0.07565128186609169;0.0057415605029008405;159.0;0.12872831928604006;0.06290330080571696;0.00396948191576436;151.0;0.1218799254525845;0.008400629425625823;7.07929464434301e-05;155.0;0.0636866222890006;0.04853374738001202;0.002362690026752442;159.0;0.11290083678771219;0.046328105981361105;0.0021524742434691573;148.0;0.1117376853572021;0.044757001088376124;0.002008992175547036;155.0;0.11078349146772;0.04376035201378476;0.001920228391370116;157.0;0.11106450090898438;0.0433825586647122;0.0018870198519263621;149.0;0.11047402821186258;0.04370073042227518;0.0019146264228915844;156.0;0.1103338896372633;0.044180440533173534;0.0019563629651969745;153.0;0.11065944848355859;0.05152788762324534;0.0026634212469577793;148.0;0.11200406244123269;0.15624572111948556;0.02449265259597632;147.0;0.2296877355975166;0.15728323707565348;0.024815210133252982;160.0;0.22844379455392105;0.1604586506588758;0.02582970011400424;148.0;0.22587167123754187;0.19607060910019922;0.03857097510502067;159.0;0.25179336669729213;0.21459021148242077;0.0462013430351738;159.0;0.2647721028387767;0.18433646453715913;0.03409128487111225;147.0;0.2395679610460263;0.1638095876393037;0.026921864425480092;148.0;0.2243476392640184;0.1402236251339887;0.019726884662861977;152.0;0.2185832445372179;0.14334348389533524;0.020614971334440287;152.0;0.20860018437362507;0.13935300003979936;0.01948298575501236;152.0;0.20573417701566574;0.13750712354470868;0.018970334869249827;154.0;0.20430666570423972;0.1374216913588632;0.01894603758586306;150.0;0.2042992879099354;0.13746188417355273;0.018957070991767005;150.0;0.20420458900483465;0.14263518490306087;0.020410919625289122;148.0;0.2059233906765306;0.15444072545301024;0.023928972746042027;147.0;0.2110232942869319;0.15094329618747604;0.022858625765942962;147.0;0.21030550777408227
0.17788978745184328;0.031743391899511565;146.0;0.2183497076860388;12.0;0.1780024323811707;0.03177578545575616;146.0;0.21917036379225233;0.18843877841665577;0.035596415592515716;146.0;0.21922673529899206;0.21161404883140772;0.044860586178152445;158.0;0.22491831034437135;0.20238851933112828;0.041040575478575224;161.0;0.22238485854176468;0.1678587921423894;0.028235880349500926;151.0;0.20553225763763866;0.1456807282039073;0.021276184379763002;147.0;0.1941089246322329;0.00877853376499931;7.720853575692611e-05;162.0;0.06313342691346346;0.12260696274131459;0.015079891274170872;153.0;0.1831745890199294;0.1191880226546826;0.01425110088239783;147.0;0.18246433143989746;0.11780280772625079;0.013922561155850726;152.0;0.18223262639471513;0.1167161040027376;0.013667128766950412;156.0;0.18285376315007473;0.11617261539441494;0.013539885001495862;154.0;0.18294145054267352;0.11787192030384921;0.01393925191084548;160.0;0.18433596036932146;0.12041201512476943;0.014546514139186057;155.0;0.18580047291769933;0.12488775273215057;0.015646055619120754;151.0;0.18034605230740944;0.19218426284087708;0.037000278179773985;161.0;0.25611874085637604;0.19595710244340123;0.03848360432654538;159.0;0.24746263732757753;0.18261864513489165;0.033405285460709006;151.0;0.235808840979665;0.2196573467911187;0.04834953144281132;167.0;0.2618032198589635;0.25172424476466637;0.06349549854663736;167.0;0.28873399258361193;0.2063452159456932;0.042654725933068384;152.0;0.2545651816408109;0.17493119899657208;0.030663674225937864;154.0;0.2317545647642636;0.15107800398941154;0.022863464050067353;158.0;0.2284574246493486;0.1441638152569544;0.02082477463144714;157.0;0.20984178833356967;0.1361756282120125;0.01858049750194577;155.0;0.20462504660452296;0.1316901915522051;0.017372887869515855;153.0;0.20277231038957375;0.12964781998149413;0.01684131101156003;148.0;0.20141749506988613;0.12902108643089547;0.016680691190925634;147.0;0.20064567589334226;0.13280696240820986;0.01767603800507885;146.0;0.20302249575756576;0.13975287440624112;0.019567541747366368;145.0;0.20655762199061725;0.15449484305601852;0.023917677090391398;156.0;0.21224570360908548
0.21770701100209677;0.04753211757080398;170.0;0.2607466216941985;12.0;0.21992131640499843;0.048484016118949536;163.0;0.2565176717424821;0.2639587151185002;0.06985279633661787;165.0;0.27195542120794286;0.26721328591340593;0.07156125605794511;166.0;0.2763883371015585;0.24939946335170612;0.06237426797683101;161.0;0.2669262655286837;0.2039901510104551;0.04173241417531796;151.0;0.24276321621126795;0.17347177403299446;0.030178401479631002;152.0;0.2270636688305371;0.00886313861691145;7.880665063520232e-05;149.0;0.06386498519707287;0.1404787844301701;0.019797513904595596;154.0;0.21023019260014222;0.13526539924745767;0.018354779100091548;156.0;0.2083190136362522;0.1332231342819383;0.017805295854548216;156.0;0.20817918099963803;0.13146849109745848;0.017340446905949394;158.0;0.20759589970266062;0.13043095024645007;0.017067803640452583;160.0;0.20763961067275716;0.13200818944255283;0.01748286622220813;162.0;0.2088047734618228;0.1349930989261181;0.018282795190120327;162.0;0.20963471316177557;0.1444296327874674;0.02092481638672685;152.0;0.2084633864715725;0.2028902750410864;0.041298822342366086;164.0;0.26422533462921816;0.19659759944360922;0.03876321889789513;153.0;0.2524401520685535;0.17788420704734365;0.03173648608671629;142.0;0.23697256916465206;0.21251330357095788;0.04530010020404431;155.0;0.2603448311171318;0.2404481810141277;0.05799629413651039;155.0;0.27962664635057566;0.19110285413817543;0.03663376656474155;142.0;0.2445826017305256;0.15503819209039035;0.02410400886795108;152.0;0.21938916728402721;0.14449749248930321;0.020941261791345662;147.0;0.22639837024541903;0.12062948141713678;0.014585137849282448;151.0;0.1954914602864197;0.11247266384271382;0.012679564226563066;148.0;0.1896825876427854;0.10745600576725362;0.011574082932529418;145.0;0.18741848642972925;0.1049126582620596;0.011030623438720102;144.0;0.18543240073820896;0.10426061831826439;0.010894118062729954;144.0;0.1845389281434646;0.10625260479496576;0.011313465386283512;145.0;0.1851426686041451;0.10988888879190366;0.0121052081586481;137.0;0.18586711114888757;0.13178387440346923;0.017412366530890473;153.0;0.20046113006103147
0.17228976376352484;0.029780119700154276;167.0;0.2393493942171801;12.0;0.17739330080713994;0.031565719970379415;164.0;0.23143424222374473;0.47972076245815687;0.2299361160254854;180.0;0.2682099007021732;0.22836875353777797;0.05231206380244614;154.0;0.25861198557285797;0.21030464450362565;0.04436323374200177;155.0;0.24806386086609297;0.16700775409227836;0.02797596989398568;153.0;0.22059377816909967;0.135307895678062;0.018366501785020188;158.0;0.20273950445868857;0.008311739552392365;6.931038079000622e-05;150.0;0.06272999652409139;0.1001479481636285;0.010062487837086909;154.0;0.18330760938929394;0.09392078350888448;0.008849500417527438;158.0;0.1803688588316953;0.09136120557908244;0.008373753776216568;156.0;0.17999590946159497;0.08927178774081618;0.007995046494835132;156.0;0.17826551671146038;0.0881551222901775;0.0077966137244901805;155.0;0.17798005805511674;0.08880575181119996;0.00791086045743775;155.0;0.17846944492478972;0.09116687801750814;0.008337595690253873;153.0;0.1794644351819064;0.10649133443649109;0.011377522311005021;149.0;0.18384141134651258;0.15342905853408872;0.023604639277736945;149.0;0.23151603198794185;0.145674738987202;0.02128896982493877;162.0;0.2305580213379511;0.13306009065966584;0.017762408324945182;150.0;0.21544158348251632;0.15247088490410612;0.023319237749697432;155.0;0.23004577713885657;0.16751946680193197;0.028145590963118156;158.0;0.24493216385456398;0.13703551352183507;0.018836487416261517;151.0;0.21663299349301135;0.11519398111586823;0.013309594312894722;159.0;0.1979304500056456;0.11001663094004724;0.01214164357745295;157.0;0.20158793204696626;0.09468244979036453;0.00899311141601881;156.0;0.17961706168969233;0.09054860505296093;0.008225651513059323;158.0;0.17575289332557173;0.08785678668783406;0.007743980321080562;157.0;0.1736558208822815;0.08658280203093884;0.007520867704091421;159.0;0.17273111641828703;0.08597339651553496;0.007415555948025057;158.0;0.17220322226929693;0.08702328213161653;0.00759758754231725;155.0;0.17125144581392573;0.09077594142615626;0.008267055738604697;149.0;0.17204128626154533;0.10126186144096563;0.010286179044793706;156.0;0.18365281007007248
0.15035641763554178;0.022669959051359528;162.0;0.23207696798276267;12.0;0.1440885204449807;0.020810956105057406;160.0;0.21554847413228587;0.4763867037846424;0.2276363693572456;158.0;0.23044776631116629;0.1682261763282995;0.028348935676006062;164.0;0.2166855191295649;0.1625957414044209;0.026503688567265732;167.0;0.2162137381765354;0.12772367103289348;0.016358123592057416;167.0;0.19389036364557305;0.1011122502206833;0.01025192175935842;162.0;0.17634872952715885;0.0084348787057536;7.137751245072025e-05;152.0;0.06435535761604551;0.07461506208303417;0.005584152901227768;163.0;0.16267294235770757;0.07012077033256807;0.0049313353686690755;164.0;0.16162388588954676;0.06884779866697668;0.004753560975120427;166.0;0.16193672947526525;0.06766418842051902;0.004592574321900602;167.0;0.16162339051652844;0.06750905307964476;0.004571187995568937;164.0;0.16250209258752277;0.0680976015210037;0.004651183786534854;162.0;0.16383946175990724;0.06921222257763804;0.0048047220452769965;161.0;0.16568913180622294;0.07861981968739518;0.006198236648781975;159.0;0.16171072361485692;0.09929339529888544;0.009891240844699601;147.0;0.20573218001469593;0.10325120153295082;0.010692064669229787;166.0;0.2044895064014971;0.1020107044103567;0.010432583600873922;156.0;0.19422755850196896;0.1259222973642208;0.015905042782539763;166.0;0.21444830357545702;0.1429493290504349;0.02049948491347336;168.0;0.23654814606748997;0.11373741125128832;0.012971236405929846;159.0;0.2087224688000027;0.0944250546033589;0.008937531944035489;160.0;0.18958660892313092;0.08332604590687588;0.006957391115968458;163.0;0.18338927009023687;0.07702514368051024;0.005938393052363948;159.0;0.17351254312536576;0.07285649934226252;0.005310750167293904;165.0;0.16965695811420847;0.07053652572882832;0.00497714065263388;160.0;0.16722051337239477;0.06916156652704873;0.004787265943376461;163.0;0.1659641352171407;0.06864603102733209;0.00471390254318037;162.0;0.16545265350378305;0.06962003849119695;0.004848445601103158;157.0;0.16497576420014173;0.07378995956460309;0.005441619875397815;164.0;0.16791764309479698;0.08073243833445067;0.006523483231661919;162.0;0.17559659060474025
0.13450287715530368;0.018149478015878052;146.0;0.213653807475681;12.0;0.13173241617612322;0.01740997547190914;143.0;0.19879489698834102;0.23206447340912262;0.053517701483779934;153.0;0.19414411162096287;0.1469726267272631;0.021652880874855937;167.0;0.20332300438033998;0.1376261003266701;0.018968786179412164;170.0;0.2008864307338348;0.1091152543122374;0.011925921173962321;174.0;0.18553096809166417;0.08757373962301435;0.007681622176369197;167.0;0.1695089189169202;0.008876869507550091;7.905101715159041e-05;150.0;0.06503706617072241;0.06601046255710069;0.004367635192176407;165.0;0.15459329870872368;0.06290905003047453;0.003966283639267816;160.0;0.15397677863938902;0.061778576298545315;0.0038262634234089506;162.0;0.15340064197634104;0.060913871308300095;0.0037202033536138913;165.0;0.15386155589176384;0.0607016899524569;0.00369437643366859;162.0;0.15396481466168138;0.06177768123792398;0.003826408900332886;162.0;0.15551392897750557;0.06253116220916181;0.003920318761815011;161.0;0.15661829129565377;0.0678764488437966;0.004617120903498432;168.0;0.1520120366389907;0.11637079135858808;0.013586428705261375;169.0;0.21443834018126567;0.11742669356234643;0.013831113410995086;166.0;0.2081927565669383;0.11202576224660227;0.012583443961106574;155.0;0.19793322579877337;0.13599675837869066;0.018542682637491925;161.0;0.21377901468651703;0.15578849358500346;0.02433961388251045;161.0;0.23401910942010576;0.126640354109087;0.016086553003424986;152.0;0.21094078733618202;0.1060843611893678;0.011288400903569362;152.0;0.1924446308385844;0.09921149454190618;0.009875275685457803;160.0;0.19439363944037955;0.08470292999501901;0.007197634591073447;148.0;0.17515869164159076;0.07926825848480196;0.006303610674049347;151.0;0.17082628266868238;0.07608096126195941;0.005807074435043276;149.0;0.16844267857421;0.07467054414457762;0.005593608388738451;155.0;0.16701027673978416;0.07384151228050918;0.0054702471159323455;150.0;0.16616930875078847;0.07507961808023023;0.005654737927435624;150.0;0.1673585021759374;0.07857632308720779;0.006193580004349004;155.0;0.17036033885543578;0.0900731323309589;0.008139325491974195;154.0;0.17745776498887558
0.12306851320705106;0.015191406775735761;151.0;0.20666345460910804;12.0;0.1192271662738788;0.014256572857715947;150.0;0.19403842492119278;0.12936507987647342;0.01663776327020499;174.0;0.18801206845620327;0.126112609474413;0.015952214346535168;163.0;0.20419630332819536;0.11489304087295692;0.013233769595025851;164.0;0.198128050587547;0.09258722483651807;0.008594658579876017;174.0;0.182682084046387;0.07572745607031017;0.005749303577573251;171.0;0.16694276008674508;0.008444739665009991;7.15385491005882e-05;152.0;0.06240923776138162;0.05982135464066402;0.003589258048699161;171.0;0.14923734857355256;0.05758219333460274;0.00332579847271736;167.0;0.1478806785489571;0.056847462971853994;0.003241591152370495;168.0;0.14752421894970077;0.05684987113737808;0.0032421347191913677;169.0;0.14821680403640627;0.05658823300013255;0.003212386876754462;169.0;0.14720067968936262;0.05854978583161325;0.0034388632547082292;171.0;0.14838561891848384;0.06048275643007286;0.003670073267250853;167.0;0.1496482126336968;0.0609318396813469;0.003722432898911463;173.0;0.14586497763425818;0.1180350220925478;0.013975283150198373;167.0;0.2064431049356116;0.11821141050656708;0.014016351287632947;164.0;0.2030104622335054;0.10884664452801118;0.011880986461994508;158.0;0.19333925698209387;0.1328841240827054;0.017712806822965645;156.0;0.21001372989416583;0.15259807170572212;0.023359573195100316;157.0;0.2291559683001903;0.1227743548406374;0.015117331896196014;155.0;0.20570172600020886;0.10050355723889165;0.010128263974077855;152.0;0.18538698010729318;0.09346317617554636;0.008756069333610452;156.0;0.18415671664236055;0.07856879138581128;0.006186476194730285;143.0;0.16590020705739497;0.07357153500479467;0.005425825066532836;146.0;0.16169155835909646;0.07045401709953061;0.004974177716117018;144.0;0.15966738155446128;0.06939692771609826;0.004828410957297152;151.0;0.1589313707452107;0.0684045170398625;0.0046906947763452654;147.0;0.15818862428963845;0.06927146547676398;0.004811815160142335;151.0;0.1602530235677596;0.0731165849441194;0.0053616673469517795;151.0;0.16460680154637694;0.08540475741551218;0.007310890735718906;147.0;0.16942480100965934
0.12928849738509662;0.016769920949288062;153.0;0.22090334427945552;12.0;0.1178781407385493;0.013940327274009706;159.0;0.20394654414774818;0.10465148883686237;0.010975104669518147;166.0;0.18865128238788859;0.11620606638725503;0.013542533746863731;166.0;0.201638996084508;0.114339656056849;0.013111555186735378;164.0;0.20577171986764928;0.09530192854756847;0.009108427177968304;167.0;0.19012592270579917;0.0796295629122792;0.006357967275252658;159.0;0.17375340112339158;0.008045833818158063;6.493833136196958e-05;164.0;0.06472865332325178;0.06413685824589609;0.004124756146183393;163.0;0.15688167724862695;0.062000467943427284;0.0038549741419293937;159.0;0.15526167282134565;0.06176223394970682;0.00382585555587445;161.0;0.1558564965402783;0.06220925063285413;0.0038810596557629904;160.0;0.15660224377294765;0.062105198710288134;0.003868161443428657;159.0;0.15629890679861885;0.06319664171131262;0.004005592138038727;157.0;0.1576958463217461;0.064192557219803;0.0041328251379343095;152.0;0.1588524001971543;0.06390415024496415;0.00409561629576593;160.0;0.15334431590469383;0.10532469741347272;0.011128643461685142;165.0;0.19500818033811546;0.10507003122412169;0.011075149160062506;169.0;0.19120085346124932;0.0948377203929072;0.009019552115140269;168.0;0.18255159945750016;0.11040120076555383;0.012208559937230272;175.0;0.19778623973336185;0.1269051912265213;0.01613484846499721;176.0;0.21631366259889656;0.10596987910550469;0.01125618822032254;174.0;0.19439390770013096;0.08508673767249025;0.0072596493996791005;169.0;0.17409729240943653;0.07631648952690125;0.0058430636841172645;152.0;0.16861933522132366;0.06581097779220127;0.004344366258902567;157.0;0.1557742902332221;0.06150155903163143;0.003793426583368343;160.0;0.1516664215073094;0.058865801642372866;0.003476069472974207;158.0;0.14950919143636524;0.057731388379185816;0.0033433172149545582;159.0;0.1489534250296993;0.05722802719842707;0.003285487528166138;157.0;0.1484313935633607;0.05814071882940683;0.003390612180118507;162.0;0.14939303906864718;0.06153365251912706;0.0037980931541912568;155.0;0.15300282006018545;0.07076998595869051;0.005023282486919639;163.0;0.15861575624590524
0.09539122118940548;0.009129228502825859;148.0;0.1733879349669683;12.0;0.08824620470968049;0.007812847962484822;151.0;0.1625894616148886;0.08151274555790407;0.006666200211481275;158.0;0.15713059843667393;0.09209728823546513;0.008507013925513144;167.0;0.1672180806291249;0.09170391739718889;0.008424417062243469;153.0;0.1732016881355634;0.07723990916057338;0.005976898478231616;156.0;0.1620743464822243;0.06627245176351486;0.004401178759700332;148.0;0.15006150323153422;0.00851397159933691;7.269144686714164e-05;164.0;0.06616362326711041;0.05459511794874671;0.0029886321410127156;150.0;0.13443903193099066;0.0532696373206862;0.002845914073474466;148.0;0.13302220271439213;0.05331543584258092;0.0028507006957540367;142.0;0.13345649285738304;0.05363937101691238;0.0028859442466434124;145.0;0.13378437472269686;0.0533096350270044;0.0028505159326750237;138.0;0.13347365789555865;0.05374294639236809;0.002896831134066497;135.0;0.13477994492332082;0.05357352803697547;0.0028791860996685956;137.0;0.13605867562311855;0.05386092854430553;0.0029091418047748206;148.0;0.13206443491571337;0.06313554526770798;0.003999121677440835;164.0;0.14016386907983197;0.06450502628056969;0.004174443398395057;153.0;0.1369491593762434;0.059094290438890626;0.003502655396323306;153.0;0.12863617175698397;0.06338023829419245;0.004027703942149256;146.0;0.13536807629636863;0.07159447237181879;0.005140792330277614;150.0;0.14859903439424155;0.06401033831702067;0.0041084716568808915;146.0;0.13535452189528496;0.053616624815833756;0.002882443352038996;151.0;0.12318354863672923;0.04787472072304372;0.0022989208976031184;147.0;0.12342629080080568;0.04415167594451661;0.0019533664715333052;151.0;0.1130611488852447;0.04176916387398149;0.0017484756318441705;157.0;0.11131978733230048;0.040326433949621376;0.0016300770010098116;156.0;0.1091482491958067;0.03956674501370221;0.001569507365126395;155.0;0.10870718054884745;0.03944478453392925;0.0015597779149240144;157.0;0.10845468720991644;0.04035401375378111;0.0016333073704076343;160.0;0.10811846677708307;0.042155167681533164;0.0017828437144171124;145.0;0.10929103836369047;0.04635020446860154;0.0021528894940798485;142.0;0.11384243006477397
0.11067311086094973;0.012277269789842433;152.0;0.1690055211776046;12.0;0.11154356828462121;0.01246043926087825;149.0;0.16527721044297652;0.12668245218174545;0.01602309179343556;154.0;0.17893653031825554;0.16767668357502943;0.028206070531298495;158.0;0.18926370651019056;0.16081492870108283;0.025946178343502976;152.0;0.1922585747940662;0.12563986141946099;0.01583706499900297;158.0;0.17520928607633504;0.09961692633485905;0.009955463350052103;155.0;0.1603524831643171;0.009416603981761076;8.894252801815116e-05;157.0;0.06763376240165142;0.07521181742368964;0.005671892396154487;148.0;0.14226169814543446;0.07147023676647997;0.005119952158948194;153.0;0.1405552123368503;0.07023658995730192;0.00494463189285125;147.0;0.14011222599275447;0.06980524698489068;0.004881880830952742;151.0;0.13993367402999274;0.06922712790859756;0.004802250022653473;143.0;0.13949083791055492;0.07080968489771168;0.005023729292225646;144.0;0.14012059957521444;0.07271805077791466;0.005299806562885237;148.0;0.14125032289997128;0.0785675398431256;0.006189057306968363;147.0;0.1416178244244242;0.01891834648713822;0.00035906496256890444;158.0;0.07507244593158952;0.019255566329856633;0.00037181966743281866;140.0;0.07478315005205279;0.020305745625960457;0.00041352541538668255;141.0;0.07460394835637554;0.030245828548929803;0.0009177081545285595;130.0;0.08470147364223915;0.03279248002252286;0.0010784677188073208;134.0;0.0869403186933077;0.023920860450655692;0.0005739073490733233;151.0;0.07865553488871357;0.019657427193259733;0.00038756659850353026;154.0;0.07568816423764277;0.016910185802266022;0.00028688358874125376;156.0;0.07332963407777078;0.016599730461439262;0.0002763320346388923;154.0;0.07098091337283993;0.01638047225915673;0.0002690624856728383;153.0;0.07208482899593455;0.01545937073865855;0.0002396296249516093;154.0;0.07007900718407425;0.015063738939437292;0.00022760496128930124;147.0;0.06893207988447858;0.014775481684204547;0.00021900994559805246;158.0;0.06920844572556994;0.015358747047503191;0.00023665981971110022;161.0;0.06997225598220985;0.015758880900366305;0.00024913507456577136;152.0;0.06952912889295355;0.017012247034228007;0.0002902494849436549;141.0;0.0707411589199593
0.17723778496623951;0.031515401561970344;148.0;0.24529232474472068;12.0;0.17878601239642034;0.032068874067682544;145.0;0.23437686616161743;0.22531415629552035;0.05092471298662246;149.0;0.23681625533388173;0.2401771125714052;0.057859685152519214;142.0;0.24813782856896152;0.22947778990474615;0.05282305421989426;156.0;0.24701408272778982;0.1847834085785582;0.03425435072377585;155.0;0.22523560612549132;0.1510041998041573;0.022875483944854766;150.0;0.2077691379366272;0.010286519934393367;0.0001061228264468251;163.0;0.06618417279708856;0.11440137846748918;0.013129688882452346;142.0;0.18747486850411954;0.10763965684351164;0.011623781394846345;146.0;0.1845797376219753;0.1053812489686556;0.011141018629002753;144.0;0.18384331702796633;0.10446460370217553;0.010948427293319614;144.0;0.1836123278049891;0.10369438904606583;0.010787229959147321;142.0;0.18320597312894704;0.10594217326701988;0.011260414537987446;144.0;0.18432648577012492;0.108487506879091;0.01180776603703204;145.0;0.18527985112752368;0.12083321326645971;0.014647572898790602;143.0;0.1878699556946887;0.09914080416572647;0.00985937720238995;159.0;0.16644070781303655;0.11096883241011697;0.01235460639451084;144.0;0.16989618417393057;0.11163671182540925;0.012503658802596945;151.0;0.1726844130152503;0.1359162481575144;0.01853425055872915;150.0;0.19795097906963954;0.1410479503039078;0.019960285562469333;155.0;0.2044434541078396;0.11558800357693785;0.013404482428769586;169.0;0.17964561289355888;0.10034721715913965;0.010102552753460841;168.0;0.16493965563637483;0.09052661506247738;0.008220601360468868;165.0;0.15440119256906812;0.08537738883125694;0.0073131427351023825;165.0;0.15065834816390186;0.08231988436979075;0.006798616035508204;160.0;0.14857692003120607;0.08047311475914411;0.006496788997921973;162.0;0.14717748935052533;0.07937678967736538;0.0063210357806123265;156.0;0.1457748991104154;0.07832006479853462;0.0061534875843579275;163.0;0.1441444079697222;0.07980613974725216;0.006388358005873147;160.0;0.14400392474197424;0.08597286786365577;0.007411788572003651;160.0;0.14487852972506873;0.0925228593298897;0.008588282688760803;159.0;0.154780774209527
0.174428456441157;0.030519611637001617;159.0;0.24731859465367317;12.0;0.1687937544993066;0.028574440130242577;144.0;0.23099698620359194;0.20575680444058148;0.0423806851040505;143.0;0.21747575991055923;0.19576336674846095;0.038446127750616205;148.0;0.232012850296873;0.18953776845489;0.036040886392499374;156.0;0.23051726441133127;0.1563240690686459;0.02451713442767076;149.0;0.21316623007784352;0.13144119546604702;0.017332761780559064;143.0;0.1983900553432012;0.010054255765442973;0.00010141689051196204;161.0;0.06289859013619573;0.10044950356139136;0.010118068612768082;148.0;0.1785336685830435;0.09448347550630487;0.008949764552244542;147.0;0.17559518563378948;0.0925428006275382;0.008583738102817373;141.0;0.17459382447218397;0.09163673474231644;0.008416063864556315;141.0;0.17428963789956023;0.09118948998013297;0.008332596316219505;140.0;0.17417528940786775;0.09271513229503135;0.008616990262104347;140.0;0.17539119032147846;0.09485868550035319;0.0090181746163147;143.0;0.1772398812671564;0.10621280113752712;0.011312352638396765;145.0;0.17902777013792148;0.16299476465535184;0.026646868623474502;149.0;0.24580474238046626;0.16372936282156286;0.026896097531569893;147.0;0.24272243821069436;0.1601757258415506;0.025741601348859843;151.0;0.2362265358714704;0.19549985846591142;0.03834393451802951;149.0;0.25974144633376706;0.2077324800620799;0.043291897922691204;156.0;0.2727096803181347;0.16839465499446385;0.028449836764735555;147.0;0.2458415091265058;0.1443107380288707;0.020894703699301503;145.0;0.22569560157189392;0.1423392095792558;0.020323780207227023;153.0;0.22376750065821124;0.12079320761960496;0.014639635246088746;151.0;0.2066240830408715;0.115708882019895;0.013433084573963971;149.0;0.20348853989010632;0.11359739099575263;0.01294723195883527;147.0;0.20261201816563043;0.11329429669041154;0.012878188285613146;149.0;0.2027021144656221;0.11372145207860242;0.01297521509234204;150.0;0.20292652600552;0.1185257757610195;0.014094249255382517;147.0;0.2053492289630062;0.1289334446092838;0.016677506357143237;147.0;0.20950085571750252;0.12872808765501567;0.016625753027930613;144.0;0.20937324996769263
0.1361837110540178;0.01860680259954966;160.0;0.21160877230844252;12.0;0.12421103612677628;0.015478951309512736;142.0;0.19439442023567896;0.11148134290522703;0.012462268921218494;143.0;0.17717084587463724;0.12853438551380253;0.016535153565752258;156.0;0.2003373390046607;0.12844118246761393;0.01652065066492859;158.0;0.20163975617093538;0.10215688331095782;0.010456753432410544;153.0;0.18219069999329496;0.08496706596088052;0.0072352938607415755;148.0;0.16548208955893656;0.009774077403194586;9.583974692729987e-05;155.0;0.06479988029111096;0.06666054232772814;0.004455823937348431;150.0;0.14776218645738864;0.06392907964033652;0.004098793056383425;149.0;0.1456779954680324;0.06325359015391498;0.004013027898358704;147.0;0.14517334349066113;0.06303397608212574;0.003985492299354576;145.0;0.14490219407960644;0.06348777707297933;0.004043213097268567;144.0;0.1451398419154848;0.06485543514247522;0.004219123997806858;148.0;0.146434618746151;0.06663398020459718;0.00445387008301471;154.0;0.1498589286252189;0.06963653368490666;0.004863220891786647;150.0;0.14744946343353033;0.17320023502515203;0.030070673858565086;146.0;0.24792680927627583;0.15685872225851308;0.024669384247040238;155.0;0.23995154297079385;0.15115296192325453;0.022906596965406395;154.0;0.23050206860145442;0.18830333909994412;0.035548248364184326;145.0;0.25422604432638973;0.20581073273394146;0.04246997584031868;150.0;0.27388510450885034;0.16794001860244237;0.028274736328344274;148.0;0.24668500884825845;0.1440056678037808;0.020796047717269096;153.0;0.22676629742851387;0.14315130858706232;0.02054508703784962;154.0;0.22498508869253275;0.11927825080767653;0.014270725690740085;153.0;0.20870667633082596;0.11313582439352231;0.012839245206611458;153.0;0.20487301492217014;0.11063224457558828;0.012277281097014259;152.0;0.20360544910690156;0.11008127151267139;0.012155000060617345;151.0;0.20320925777456517;0.11086770505054588;0.012326584581268363;152.0;0.2044157464803216;0.11494845866807318;0.013250525384464855;153.0;0.2074726938154764;0.1222062533522766;0.014971028795259892;154.0;0.21141785969656268;0.12456911941142881;0.01556184509788488;155.0;0.2092983770872361
0.10973101913348281;0.012078320737947646;139.0;0.1986125797284212;12.0;0.10294966619945986;0.010633190835659025;141.0;0.1825309217029756;0.09490831596692276;0.009036775941784106;147.0;0.17207403234883004;0.1272178325428479;0.016237101445232834;167.0;0.19840033195275228;0.13204685922810944;0.017493248239072712;162.0;0.20069788303215155;0.10546940345892719;0.011159699302397574;161.0;0.17935773932415738;0.08450117620854472;0.007162616746600734;153.0;0.1612186452007013;0.009376514250170592;8.819249772748988e-05;153.0;0.06677694593127133;0.06415583173232635;0.004128518458517261;152.0;0.14404965266495037;0.06115384747359845;0.0037504529869444615;155.0;0.1427113401555926;0.06084919247825999;0.0037136042315515996;152.0;0.1427949085119456;0.06069537398701541;0.003694532964966316;148.0;0.14266049575118386;0.060702103668206955;0.003695739749581768;147.0;0.14252947820902861;0.06269829946072528;0.0039427249454714345;151.0;0.14446897033706263;0.06442727345926318;0.004162819088566514;153.0;0.14672490372095204;0.0665416578273419;0.004441699997433288;160.0;0.14194478592871254;0.1390700681748129;0.01940405718698308;158.0;0.21624560512218272;0.12700759767885064;0.016177994147720726;159.0;0.21265064391136315;0.1265834683792316;0.01605696617408511;166.0;0.20615932308366;0.16785578232804535;0.028217005706004453;161.0;0.23384543217201867;0.18230595944082495;0.03326749518258948;157.0;0.25314378025670153;0.14780764016287606;0.02186367642769139;155.0;0.2263738776830725;0.12506068278364732;0.015670069936009414;161.0;0.2077690222003755;0.11275517418531567;0.012754558604993737;160.0;0.1958456521666288;0.10105473026014837;0.010235776007603791;157.0;0.18929329374895035;0.09481248318877103;0.009011483574519665;161.0;0.18523177708539496;0.09119907704424077;0.008340820565309786;164.0;0.18223989472726787;0.0890770180602412;0.007957371614583701;162.0;0.18078230488553365;0.0880205154599926;0.007768980825482661;159.0;0.18021438607603418;0.08812906363692004;0.007791237154180436;159.0;0.18021430625723325;0.08931050073484853;0.008001671777179134;160.0;0.18102570865400822;0.10616553959407656;0.011291218693884488;162.0;0.19140251556182372
0.0957267269367984;0.009191288291318909;147.0;0.19068335907424297;12.0;0.09409104421550483;0.008878692349544392;148.0;0.17825657921601784;0.0936081261436648;0.008788879710774574;153.0;0.17735703805277891;0.12441481895669113;0.015529332177187183;152.0;0.19782352980925377;0.12571276649596003;0.01585505177435293;153.0;0.19959526503267852;0.10016002799552226;0.010063191058295815;151.0;0.17874307796819144;0.07788377374862909;0.006083062768011816;147.0;0.16043260803108456;0.00850518245262576;7.257410455353521e-05;153.0;0.06603656139406028;0.05627525308869477;0.00317449770304889;145.0;0.14238463471536372;0.05330398143334742;0.0028484016246001645;149.0;0.14116819182532564;0.05294267876423493;0.0028087989761754442;144.0;0.1413950326634356;0.05266927727182429;0.0027798072375228976;143.0;0.14166325345700395;0.052331164119114114;0.0027435974778586914;140.0;0.142034884267248;0.054047363965743556;0.002926708557626356;140.0;0.1435484679365753;0.05643374719574994;0.0031904546391020275;137.0;0.14465452114168337;0.05659010431876287;0.003209620028651844;156.0;0.13752583294959045;0.10513906242727478;0.011082998590081447;172.0;0.19235395951463316;0.10114896507500641;0.010251772106262448;167.0;0.18802330286973348;0.10136965522540915;0.010299947349293084;177.0;0.18357248165027254;0.13694981919918403;0.0188025768982827;181.0;0.2070004692931576;0.1512091123013453;0.02292995537870425;174.0;0.22622064986971774;0.11780428589115567;0.0139193947569165;167.0;0.20384794122546207;0.09508851274955962;0.009066281810003837;163.0;0.1852799224848143;0.08815172905342857;0.007792671492548285;163.0;0.17431541969669356;0.07296978221612452;0.005341082896652145;162.0;0.1647100507266914;0.0678594618145647;0.0046196893487899324;164.0;0.16014829541321604;0.06419066425568223;0.004133491881754179;162.0;0.15662782882547446;0.06236179860260556;0.0039011673731490664;168.0;0.1551276115644134;0.061018418987346;0.003735001764181491;164.0;0.15451355193158722;0.06108750047792699;0.0037426875515350405;163.0;0.15433201684610745;0.06254947963320963;0.00392391956470574;159.0;0.15557404156713706;0.07767371091719358;0.0060511303910284284;166.0;0.16811075937840128
0.0998542846950438;0.010000984500614922;172.0;0.19119932666784967;12.0;0.09812911006274913;0.009659900934734863;163.0;0.18022186347689023;0.09498327496353821;0.009050659184640986;151.0;0.17667091152448774;0.11693012834272787;0.01371188065911391;140.0;0.19664729975912434;0.11109393985344833;0.012378526697324704;147.0;0.1973311364484828;0.08490929485814797;0.007232539965848659;140.0;0.17400873115176335;0.06600706888435551;0.004370903689548309;145.0;0.15520146389516923;0.008582730126634372;7.390517145390648e-05;157.0;0.06537438666487155;0.05079749410893679;0.0025888404447862653;147.0;0.1400721615868962;0.048900904230908857;0.0023990859678334675;147.0;0.13859879592311472;0.048533944367644626;0.002363271970708749;147.0;0.13892854904202087;0.048415531613978796;0.0023516343820246003;148.0;0.13895468403542927;0.04841545620506253;0.0023516876551280003;146.0;0.13963242086809421;0.049664546804097584;0.0024744232064260563;146.0;0.13988902956491317;0.05179217543345674;0.002690885509589869;147.0;0.14127136774429336;0.05070890542105452;0.0025798176057704254;153.0;0.1367451860528997;0.08945229383473004;0.008026029514001219;171.0;0.1818079516291775;0.08720829102080443;0.007629420429434792;165.0;0.17931654208034042;0.08212548357572304;0.006765469678446966;175.0;0.17222272567322766;0.110555968508808;0.012260415164196372;171.0;0.19363237529438856;0.13656911668706403;0.01870557494305338;166.0;0.21766079842717875;0.10827496022600118;0.011756123524801777;168.0;0.1948540047072378;0.08485825892932485;0.007221552844161753;175.0;0.1745569725209847;0.07101648772853812;0.005059002339839241;163.0;0.16406520193822455;0.06147128918555398;0.003789928910482189;171.0;0.15222256437788856;0.056386767711001776;0.003188947017358371;171.0;0.1471912575722166;0.052995713722184784;0.00281691717739465;163.0;0.14381600341891648;0.05152741469936406;0.002663188656397907;166.0;0.14200983329427438;0.050878302971737906;0.0025967608175562905;166.0;0.14180042875041218;0.05219408542365835;0.0027330102201694358;166.0;0.1429343550584037;0.05540792063358488;0.0030800029387237594;159.0;0.1458451895954694;0.06836583587869631;0.00468731444625654;174.0;0.1582739612779327
0.08991071145114969;0.008110014586657197;176.0;0.18307140580806344;12.0;0.08219157343262386;0.006777343758814657;172.0;0.17103004336840633;0.07249176020045024;0.005271654818581665;150.0;0.1606716454787787;0.09910810074211927;0.009849774394188842;152.0;0.18355364581810985;0.10550669503407752;0.011165160509118163;149.0;0.18676503952577303;0.08464290332111926;0.007184227531797728;137.0;0.16740691366989044;0.06869675321743614;0.004729809612698497;149.0;0.15160025526038318;0.008770528535875581;7.717345724845866e-05;149.0;0.06789453871500865;0.05235131684741106;0.002745570060738556;162.0;0.13652085000802053;0.04966792771102261;0.0024721807358685823;161.0;0.134857357575584;0.04874868899707593;0.00238148998148521;161.0;0.1346679305849694;0.048289829881238436;0.00233678353990735;163.0;0.13467232235519633;0.04818425758210316;0.0023258010809401835;160.0;0.13459566964780453;0.048635450253682946;0.002369505049093708;160.0;0.1351361145057365;0.0500780406933162;0.0025107177873595725;164.0;0.13573105718784031;0.05354753779224695;0.002873479608744366;156.0;0.13531802687553715;0.10255314576541852;0.010550453170361273;156.0;0.1923189149775282;0.1085684472246552;0.01182563498994783;153.0;0.19551603028489953;0.09721331525606976;0.009481177802691603;162.0;0.18219043683711203;0.12575110265257833;0.015864525971208628;157.0;0.20188197933874524;0.14787150779624428;0.021936708015077598;153.0;0.22391507337984676;0.11485664946816822;0.01323441991063811;155.0;0.2002785851481785;0.09058713845575446;0.00823282082310301;164.0;0.18001645108955572;0.07363351344242022;0.005439609443678551;155.0;0.1650640329700445;0.06674638691125959;0.004469662230398901;165.0;0.15785817369820318;0.06133854734326831;0.0037746675929041275;164.0;0.15252531595152816;0.05790785287663651;0.0033642920243293624;162.0;0.14884512438293684;0.05571775345671314;0.0031146142689560128;158.0;0.14638676412489687;0.0552702791690165;0.003064784100775891;154.0;0.1458350241272829;0.057417938497148435;0.0033075176730432286;155.0;0.14668065859038754;0.06169219610132176;0.0038180855971311533;149.0;0.14948676478905076;0.07334833825333321;0.0053976078029635164;166.0;0.16396720430656217
0.080310817433761;0.006470541547029206;163.0;0.1745408200824255;12.0;0.07857997278330076;0.006194074351102448;164.0;0.1652636445701715;0.07037796268468693;0.00496899114367823;155.0;0.15439929497452748;0.0912930211721398;0.008360679123960095;149.0;0.17050046776637517;0.09676620333940004;0.009393661149831908;149.0;0.16859263708336122;0.07932441108314833;0.006312024729280167;133.0;0.15358294796580438;0.06587606941276992;0.004353755182172441;142.0;0.1430859731646196;0.008356625439788906;7.005213221401727e-05;149.0;0.06652517653467625;0.0516180347460269;0.0026729766837557665;148.0;0.13098313689366228;0.04953542750250646;0.0024617477026822733;151.0;0.13017703004452166;0.048507361925324295;0.0023605239670868284;151.0;0.1302149797769306;0.04811952538056993;0.0023228593233301244;153.0;0.1303407455130358;0.048192178315824674;0.0023300243822754595;153.0;0.13024773042330634;0.048733017261317034;0.0023826257859402566;152.0;0.13129676191610803;0.049500909249955274;0.002458329947742607;154.0;0.13190488527230654;0.052282385267967676;0.0027423567128817645;144.0;0.12857753105411915;0.11617423450392357;0.013538651724483331;151.0;0.20121040652383895;0.12089457212424272;0.014662133221480246;149.0;0.199923616094933;0.1131713006860213;0.012844669312475313;151.0;0.18892549372950893;0.1505566870551885;0.022727413121220074;156.0;0.21515702101482428;0.17243808106536018;0.029812814751948684;158.0;0.23693294377409074;0.13100490153179925;0.017208251681328453;151.0;0.21240659371019566;0.1032504171511729;0.010691207374194383;151.0;0.19131661676835665;0.08412117179515612;0.00709909694423064;147.0;0.17343955972670863;0.07664189037235347;0.005891115392592156;149.0;0.16869154502827557;0.0711520029928794;0.0050781909204275204;151.0;0.16288116088524207;0.06690579779672091;0.004489298691889733;152.0;0.15973963006293437;0.06435038075402501;0.0041538174205218055;151.0;0.15696017768495985;0.06320198710563246;0.0040067697570883905;149.0;0.15590038559333924;0.06427168211064234;0.004143778619560008;153.0;0.1559583049924716;0.06663085345730074;0.004453344121711709;152.0;0.15679606408978497;0.08443161254536631;0.007149045571541584;152.0;0.1739273373484827
0.059940880700449964;0.0036046162563183946;162.0;0.13442009893809773;12.0;0.060558707995490936;0.003679287389152129;168.0;0.12863867579716579;0.0552985480269003;0.0030679228220604807;160.0;0.1213994326860094;0.0601001114407843;0.003620574841419304;144.0;0.12560148768699061;0.05838454417561907;0.003418180520196327;148.0;0.12228028103163004;0.04800240987322889;0.002307035484924445;140.0;0.11500317342242464;0.04101986337021794;0.001685832533556938;144.0;0.10943107950592161;0.007989971627445342;6.40195311506828e-05;163.0;0.06391679425856714;0.03352546541526916;0.0011264487419250047;143.0;0.0989129360615774;0.03275254792264841;0.0010755544720454752;147.0;0.09780069554987224;0.032397293775496584;0.001052599982651878;154.0;0.09851105575777926;0.03242561158761697;0.001054254365913043;141.0;0.09893872595856298;0.03268146907141663;0.0010709722154532328;148.0;0.09947587854280912;0.0332329663623789;0.001107603485735224;149.0;0.09930438442374037;0.03411998764433466;0.0011674962193375102;153.0;0.10149857051415043;0.03420056648828982;0.001172428251586157;154.0;0.09977880440163076;0.09960945059803453;0.009952702744946041;162.0;0.1751431889184508;0.09946482216285138;0.009920460723310742;151.0;0.17036727983220623;0.10522292778827062;0.01110225180791272;156.0;0.16784395695566676;0.1475132052885474;0.021820286925008394;162.0;0.19803594352661497;0.16761150139135952;0.028181799617178642;165.0;0.2172847702245016;0.12953391404594916;0.016832169720145482;155.0;0.1957775086323311;0.10412035165210624;0.010874494530069384;152.0;0.17672869790024917;0.08138049102954441;0.006643674999461839;151.0;0.16045024347758768;0.08051453930035125;0.006503215469948842;157.0;0.15692478310253494;0.07601100630439785;0.005795934279827672;161.0;0.15286738800044536;0.07269774271016842;0.005301975547548143;158.0;0.15083685667328048;0.07150571583774322;0.0051292714889270945;165.0;0.1495089504462938;0.0714291953612058;0.0051184177252007745;164.0;0.14893819934197747;0.07451307243768145;0.005570225618175139;171.0;0.15157677748413204;0.08138002593326381;0.006644070261748779;174.0;0.1545601271382408;0.08844003483648893;0.007846218939264469;155.0;0.16114806094383105
0.021092282360485277;0.0004460177793848426;173.0;0.08088444773865315;12.0;0.02160550349157708;0.0004679679130892646;177.0;0.07949526091770201;0.027953121369306985;0.0007821088980033754;161.0;0.08000743219483314;0.02191032482749228;0.0004813830154016282;149.0;0.07627609715719345;0.01941758240334151;0.0003781679266255784;151.0;0.07562508516842331;0.020330176326725655;0.00041468317814953755;151.0;0.07985471094522233;0.019424896445198438;0.0003785471468516457;147.0;0.07975551776669856;0.008121954163947688;6.61339667538674e-05;151.0;0.06359785130549965;0.013913383676187448;0.0001941906309199455;160.0;0.06878416988650533;0.013411310069109476;0.00018036996808114898;156.0;0.06653900283260117;0.013827455886348889;0.00019169814229847768;167.0;0.06675759602486729;0.013805518337568132;0.0001910006854489395;153.0;0.0678094517955926;0.01393465558522869;0.00019465213040268265;156.0;0.06808110213901933;0.013967161252055766;0.0001955604660568676;158.0;0.06770604789838278;0.015415921553805514;0.00023814966161984843;161.0;0.0699203596836916;0.015657113909960146;0.00024593859866945355;165.0;0.07170123279053424;0.11325743895749514;0.012855975414910018;159.0;0.1782548427262877;0.11458377549724585;0.013155553120425448;157.0;0.17564755735677356;0.12569851903538906;0.015818348508794527;168.0;0.18459376495930374;0.1859948938013017;0.0346320491297199;172.0;0.22070759936843365;0.20275052405530883;0.04116758313672149;169.0;0.23372277196815483;0.15547700471546644;0.02421558281525969;165.0;0.20712858948539326;0.12896830301175227;0.016662102919112944;161.0;0.18878241024019624;0.09474691623298272;0.008995544745111092;154.0;0.17017428148576288;0.10454520484065133;0.010947701206161878;177.0;0.1699329676456376;0.09891801701190253;0.0098004637212383;179.0;0.1663115020671143;0.09490056206678993;0.009021965530852749;176.0;0.16341047729177557;0.09287494858379686;0.00864047171827691;181.0;0.1628971447663969;0.09190446544651158;0.008462455051772594;175.0;0.16175669139473708;0.09381028276351608;0.00881775105809965;179.0;0.16434389102741365;0.10060082433949444;0.010145180102190962;179.0;0.16844187802564328;0.11094760430469566;0.012330696404273573;170.0;0.17290859003940276
0.06720758470364604;0.004530065508646032;168.0;0.1329397472938151;12.0;0.0750778032182687;0.005652275234197608;169.0;0.1361905320350536;0.12962147198156068;0.016839474208390208;155.0;0.1579280970104839;0.11654355823751733;0.013615707484425407;153.0;0.16804949183235743;0.11481095204233259;0.013213486054109238;151.0;0.16223245325594093;0.09280730664669204;0.008635953269044655;150.0;0.14869830015114596;0.07597793209109499;0.005788331871942534;145.0;0.1379660384490698;0.008380315348410446;7.044222031470229e-05;148.0;0.06508579097158824;0.06216779976820024;0.0038762484099021674;160.0;0.12785278727749425;0.06099787766606443;0.0037321897730089705;152.0;0.12633444356180698;0.06114524935718083;0.0037502300845141993;158.0;0.12602375896802515;0.06127114196551556;0.00376588856532863;156.0;0.1267112079269159;0.06100971549552668;0.0037339185631616095;155.0;0.1260218301051251;0.062241693762979645;0.003886667514908931;159.0;0.12666380132793986;0.06444118307857523;0.004165726927940055;156.0;0.12882220955897153;0.0620277604008161;0.0038585538369232653;155.0;0.12590408271755968;0.1366669958831767;0.018738060328921488;144.0;0.2080631458280164;0.13716836029005888;0.018873098803520172;152.0;0.20432253823363766;0.14618068727632386;0.02143647222309183;154.0;0.20823344964232857;0.2152287698322497;0.046470293776435474;152.0;0.2480280981848915;0.23090154479800765;0.05348243620946605;148.0;0.2623539922036316;0.17536016775371469;0.030843841938760882;153.0;0.2324263614574395;0.14315053727679766;0.020551465347291895;150.0;0.21185885032461121;0.10632355755221756;0.011340462204446315;145.0;0.19086554551845591;0.1136036407384575;0.012942281153663205;156.0;0.19084994241510483;0.1065459981036279;0.011384975342237005;156.0;0.18686587144450809;0.10160985410154484;0.010355143788946402;156.0;0.18353418505538172;0.09913394896396861;0.00985558236448827;154.0;0.18212728882565027;0.09680960895309489;0.009401046802745772;152.0;0.1798125858220038;0.09734746885816356;0.009505570172417668;154.0;0.17988995581590608;0.10057940533963294;0.010148140152867559;147.0;0.1809487858176028;0.12130489916731481;0.01475489739290884;159.0;0.19364120429343593
0.14723902400993089;0.021747699666179503;161.0;0.20651775382467696;12.0;0.13603216618677325;0.01856234372572601;163.0;0.1984322612507148;0.2519137252308269;0.06355188351907975;154.0;0.2127643947421445;0.16607420775317666;0.027669099270100212;152.0;0.2270424195681221;0.16233921458891826;0.026438365245658103;147.0;0.21997538175899736;0.13098180661505598;0.017210999215186804;144.0;0.2025130484443886;0.1071606012456533;0.01151877008539222;151.0;0.18775180510252076;0.008923742079912372;7.989374920596088e-05;157.0;0.06580317933604572;0.08725056276545665;0.00763277928375872;152.0;0.17283925613212492;0.08568264954468083;0.007361630700008741;147.0;0.171345964365124;0.08579509325506277;0.007378935735386105;149.0;0.17126506719440038;0.08618876413977454;0.007448263417618827;146.0;0.17200903964664632;0.08638946981221228;0.007484083011251654;146.0;0.17190517268657338;0.08881985874968565;0.007910201744416104;152.0;0.1728331176655971;0.09251263596813536;0.008581004465540297;149.0;0.17611833211142566;0.08743591066532716;0.007666352805586687;153.0;0.1702564686882682;0.12566199254020027;0.015812148674669676;152.0;0.2036559372089534;0.12785924133829013;0.016380516351869052;156.0;0.20191300245905208;0.13241261583359212;0.017551319237629023;151.0;0.20172001188445085;0.18338530729789657;0.03365729023569436;151.0;0.2400222712396547;0.19418364183478687;0.0377253905552018;148.0;0.25541612829095195;0.14721778230682755;0.02169347744267674;148.0;0.2234379941373566;0.11839800379363839;0.014030656762970247;144.0;0.20021511005590725;0.09638143975146488;0.009307270933694914;152.0;0.17684681530834442;0.09416900033128928;0.008879689329757329;150.0;0.17813321716524577;0.08875883905590885;0.007887961721274157;149.0;0.1739727990564978;0.08495561725181495;0.007225006873603822;151.0;0.1705439388606515;0.08381193932952588;0.00703437565247502;151.0;0.16856674153774157;0.0823628855521619;0.006792489715393771;153.0;0.16658763572618773;0.08405861800252958;0.007078887286907008;150.0;0.16663333385464327;0.08771624442849489;0.0077105793209097445;145.0;0.16695691815104488;0.10118020272273977;0.010250191777624866;150.0;0.18272366733654677
0.15725889048043756;0.024810665766738235;157.0;0.22628822288148737;12.0;0.14347191931073175;0.0206513174138602;157.0;0.21205496003082497;0.2366745478355666;0.05614753606152634;175.0;0.2097573662183642;0.15762480249855226;0.02491348445686685;159.0;0.22526221011667935;0.14986824561674658;0.022509692771439105;155.0;0.2183626445302735;0.12006035860898175;0.014445021035468892;150.0;0.20197593276525388;0.0999121711108693;0.010004481802322843;148.0;0.18923070852899165;0.009143967352198669;8.387417257980592e-05;157.0;0.06702361715320362;0.08269953234427242;0.0068555084642211;148.0;0.1740631557694027;0.08093487421394903;0.006566406296372176;147.0;0.1722757420332298;0.08084765029346255;0.00655303556980374;148.0;0.17227268827132328;0.08083538057681192;0.006549426277292994;144.0;0.17195598521764896;0.08178251909403064;0.006702157411441531;141.0;0.1728904209987597;0.08408875434829625;0.007088595040168041;142.0;0.17435765441768708;0.0869857579377284;0.0075894681154290876;138.0;0.17761237268896432;0.08348021862624878;0.006981786637908416;149.0;0.1725076939741676;0.1138295858119186;0.012996752349204242;157.0;0.20230225528378795;0.11960422474046983;0.014344326068515465;162.0;0.2038919226173761;0.13043131453071624;0.017059115359507725;159.0;0.20946438549756735;0.17961536498840167;0.03235320270855068;165.0;0.2456390462283016;0.19672677230542193;0.03882453830777648;163.0;0.26083955006649684;0.15035704539231318;0.022680471744001056;162.0;0.22909176569767079;0.12104406813478155;0.014699572134162219;158.0;0.20500608615337323;0.09700187143803135;0.009436336833948612;152.0;0.18028643702546612;0.09571340196936183;0.009190809215597855;165.0;0.1819665184819218;0.09009749506194517;0.008143897490753714;162.0;0.17626951615490435;0.08602417575544725;0.007424261777089117;163.0;0.1719086656744481;0.08420723910000064;0.007113977016783346;165.0;0.1692462008053805;0.08370946379745312;0.007029784562955706;165.0;0.1676738826445009;0.08575797473513969;0.007377663199245208;159.0;0.16802054785730303;0.09102009909666237;0.008310241043309904;157.0;0.1705113457065876;0.10259058948260448;0.010559045623631394;160.0;0.1872197192705834
0.11837335021788446;0.01404150046624895;147.0;0.20845819374541297;12.0;0.11449215128934716;0.013128686406436673;146.0;0.19583856435994307;0.11971323289037056;0.0143468803624564;166.0;0.19025275429836425;0.14724344798988295;0.021745337352073662;177.0;0.21512210314901511;0.14625014403483239;0.021453489581422513;174.0;0.21552248489774584;0.1129881980062657;0.012801398489492688;173.0;0.19583809266192787;0.09073265355352607;0.00824986300670994;166.0;0.1804488492261743;0.008310493938206584;6.922194152782045e-05;157.0;0.06536493561488281;0.07214231474853953;0.005211918672743672;159.0;0.16409113150032129;0.0695612868327874;0.0048461715686138685;157.0;0.16223249000432247;0.06896798870585875;0.004761857252495254;159.0;0.16214048576841286;0.06847507345310237;0.0046924005081898515;154.0;0.1610998223358707;0.06875984792008975;0.004732548583676833;151.0;0.1612845519171018;0.06983878670960544;0.004882037354102641;150.0;0.16265794077258244;0.07100403287951451;0.005046169729980839;150.0;0.16365442914898123;0.07272847117409606;0.005295535246884471;160.0;0.16184693705078151;0.09782752776342779;0.009600762832477766;156.0;0.19426245291118202;0.10113764398870835;0.010262060131827554;159.0;0.19495142799137313;0.11903898226096538;0.014215111571204735;165.0;0.19834146902661517;0.1789982378760646;0.03213574404162312;168.0;0.23516216160496678;0.19851082193228475;0.0395250146026796;164.0;0.2510046590181983;0.1462445479500864;0.021453202855132268;168.0;0.21802864604783512;0.11278383653815936;0.012761256817197943;164.0;0.19375363954909572;0.08495563542507016;0.007241108502130575;148.0;0.17455643953642516;0.08470615416348103;0.007198521452745334;162.0;0.17217814801903272;0.0786887396964217;0.006212151814849246;159.0;0.16699243910785297;0.07509024166990072;0.0056568261436693214;158.0;0.16421093761689234;0.0729162261332628;0.005334078001413102;157.0;0.16078506610914636;0.0729035005023718;0.005332073775997663;156.0;0.1590338684343883;0.07679262063024551;0.005915028755280819;158.0;0.15972539472607591;0.08456080873071571;0.007172333032233186;158.0;0.16359543653278125;0.09293943980489572;0.008664883602695912;163.0;0.1758050449806073
0.1159876755518278;0.013496558076712852;154.0;0.2068792168783231;12.0;0.10599932621265207;0.011271651996521933;148.0;0.19544431952188088;0.09574340444514448;0.009181652228787845;144.0;0.1832492275180353;0.13080512570661504;0.017160348350815625;175.0;0.20685542183306196;0.1323932570100215;0.01757464722697631;175.0;0.2086135206696969;0.10112192096401518;0.01025027422691933;181.0;0.1874458838600478;0.0791073672806031;0.006274982701883211;177.0;0.17194081085485194;0.007618019373217475;5.82209902866143e-05;160.0;0.06137287799724725;0.06016816945915516;0.00362957553755285;167.0;0.1570603827297425;0.05828202385843092;0.0034058962255919057;161.0;0.15675657762515835;0.05794238161148641;0.0033660309262099385;163.0;0.15685211065550292;0.05765751537692428;0.003333265095322073;161.0;0.15659420317760425;0.05745277387402164;0.003309243002896148;161.0;0.15653095138826936;0.058417420116251804;0.003421947657477645;162.0;0.15755824298768728;0.05997613415252905;0.0036073066927308195;166.0;0.15868070592530648;0.06050142241514601;0.0036700849761219802;167.0;0.15458762919366037;0.0944622463958137;0.008948102893663141;159.0;0.18872618746966194;0.09938238058716273;0.009904217981528195;164.0;0.18979183829132457;0.10322805123807507;0.010688356074429637;173.0;0.18542067302139065;0.1564444165490296;0.024554437110417084;172.0;0.21846650924639371;0.17497428815942168;0.03071615782983118;173.0;0.23818903927635016;0.12379744026262193;0.015375980603642835;169.0;0.20395537631097527;0.09296382356738568;0.00866995232667311;166.0;0.1814103477280801;0.07281399910620426;0.005315352068594008;163.0;0.16556607603210993;0.06751235770650198;0.004572529711635459;162.0;0.159022332150195;0.0626751736600623;0.00394065364394802;162.0;0.1545674707649351;0.059073048810385075;0.0035010342240344144;162.0;0.15156953727453545;0.057067400051580355;0.0032672823587518783;161.0;0.1486944125744725;0.056697253893399906;0.003224843627503599;156.0;0.14607915646586198;0.05999252068995655;0.0036108647167773854;164.0;0.14620078054428667;0.06663793805700442;0.004454948005094882;169.0;0.14824711799844945;0.07449285189679228;0.005567235814618026;162.0;0.16348708675253423
0.12196643172853198;0.014916961906783988;175.0;0.21255491990442008;12.0;0.11329523443440798;0.012868419793826497;173.0;0.20233662060733412;0.1040513053110016;0.010837474959614915;170.0;0.1888659654849166;0.11878284784315522;0.014143584450363844;166.0;0.19465301547513494;0.11564956644463317;0.013410582492476807;169.0;0.19519586191686064;0.09406046612308745;0.00886802047579132;174.0;0.17724058954309457;0.0758470202422907;0.005766935939536405;168.0;0.1631694586332752;0.007864862713570604;6.203040002972286e-05;165.0;0.06013751328838939;0.05656424659413291;0.00320746797299917;167.0;0.14875799361998893;0.05436522782125217;0.0029635068652514394;157.0;0.14813254435608283;0.05357224036438222;0.002877109006218237;159.0;0.1477585286698983;0.05313824900298867;0.0028312986603784263;159.0;0.14758243447395916;0.05260351651498807;0.0027747467932217806;161.0;0.1479880973693934;0.05362272831153469;0.0028840941317156126;166.0;0.14933594486004878;0.05465163540065641;0.0029962611056545702;165.0;0.15143154541961762;0.0592911727600628;0.0035246250393316915;163.0;0.14835762168423625;0.09520028659031222;0.009091449771971433;165.0;0.1890427340159216;0.09633929019591529;0.009310462848975501;163.0;0.18539134938028926;0.09565657319210216;0.009180054336687322;164.0;0.18465309890375967;0.13349956270640204;0.01787991539647156;155.0;0.21356054278430353;0.15304960067600176;0.02349835505015757;164.0;0.2354334617374983;0.11541164007217145;0.01336325971178986;159.0;0.20732593749613662;0.09174718310585428;0.008445108079732972;157.0;0.1872570742479;0.07331289700708025;0.005389742067878205;174.0;0.16859234746187793;0.06885023243814638;0.004755754304920393;156.0;0.1652446841630865;0.06435082281569929;0.00415450239685442;155.0;0.1609603943087129;0.05982298152640109;0.003590422650268411;158.0;0.15610667627754202;0.057902830478080466;0.0033635892223925104;157.0;0.15428089798819294;0.05671404046356969;0.0032269543762854214;153.0;0.1515514421041311;0.05798551578091845;0.003373167632893599;155.0;0.15070077790107914;0.0623621590247312;0.003900398548055994;156.0;0.15175058218998919;0.07456456097352496;0.005578113301263464;154.0;0.1696338486931206
0.12369541446684569;0.015349886273642777;171.0;0.21575040939202147;12.0;0.12152693648327975;0.014814605911559177;174.0;0.20382582495497162;0.12247458079676792;0.015044386789473303;169.0;0.1980161513158124;0.13459020143250736;0.018165923706702218;165.0;0.19987123452553296;0.13032790166724265;0.017030582366921496;165.0;0.20039943663552254;0.1108210486751168;0.012314278258058187;164.0;0.18600114728927028;0.09103386753800219;0.008311385077256723;167.0;0.17225864894779216;0.007857673010363891;6.193835137541871e-05;155.0;0.06032778870579487;0.06868405827435825;0.00473261149627374;171.0;0.15403633822061644;0.06532054651039475;0.004280712348431315;164.0;0.15215400188804495;0.06418873475193279;0.004133668857902562;165.0;0.15157742183724343;0.06358833904442714;0.004056700422187215;164.0;0.1519408079033403;0.06289396286843082;0.003968580119573042;165.0;0.1516734447065415;0.06440391509775659;0.004161413992300207;169.0;0.15354764234689156;0.06534659200682906;0.004284141176313626;167.0;0.15459222273693782;0.07178319174596864;0.005169150590710013;165.0;0.15223712660712238;0.08612506512105449;0.0074416614358360335;154.0;0.18535562515891318;0.0813606184158578;0.006641126318900297;155.0;0.17694090449273697;0.08417230186521654;0.0071081289886097306;154.0;0.17697989481728915;0.11990953862043106;0.014425288207066875;148.0;0.20727769852088274;0.1378182463003702;0.01905593964839621;165.0;0.23037970283245887;0.10556456716775464;0.011180270049245595;164.0;0.20137059520048237;0.08383791335661608;0.007051710870295015;154.0;0.17931017659552453;0.0676758981966582;0.004594316122086717;162.0;0.1639678349291263;0.06306784608656713;0.003990564359100081;154.0;0.15767338671346262;0.05855922254547601;0.00344040813362948;149.0;0.15384767312578387;0.05511809451438234;0.0030479147123761686;154.0;0.15005878387266816;0.05356848480505022;0.0028789836164323946;154.0;0.14807619806823408;0.05245580996343233;0.002760543622192127;157.0;0.14621826880549;0.05324293964519085;0.0028440563223893194;156.0;0.1454410276151847;0.05641039833591612;0.003192182950417664;150.0;0.14615556316424444;0.06984647550684288;0.004894419403911196;155.0;0.16200796557043445
0.10530451454048052;0.011124352872435605;159.0;0.2028414424721335;12.0;0.10456864997460456;0.010969032715948786;158.0;0.1925820208502727;0.22254935721229577;0.04968074483658663;163.0;0.22894946322892581;0.11999260758648493;0.014445365875198157;158.0;0.19379051876303757;0.11443847588678904;0.013138893688255462;163.0;0.18951530364651234;0.09608427070747326;0.009261436433333388;164.0;0.17513089106036647;0.07917087374911713;0.006288134045060596;165.0;0.1618021335484865;0.0077843852050922735;6.077965955647226e-05;152.0;0.0624280240576495;0.06170495754369224;0.003819896082624311;164.0;0.14568462471324742;0.05905724010030161;0.0034991589306515064;169.0;0.14375457615432893;0.0586092139151189;0.00344625794139428;168.0;0.14357916488926104;0.057984280463071684;0.0033731383348860754;167.0;0.14359938310862394;0.05781873142454783;0.0033539004329847994;164.0;0.1435684420839371;0.059140509092752244;0.0035089347297530458;166.0;0.14483564044192188;0.06051558861931259;0.0036740456312979843;168.0;0.14545797790676504;0.06342875069214148;0.004036117437097166;161.0;0.14402076028672298;0.07944856285536546;0.0063315259586505055;150.0;0.17856521143126525;0.07633487112548587;0.005845663097614272;153.0;0.17136499147298404;0.07477344135337181;0.005609194139263774;155.0;0.16620771305841167;0.10341968791993962;0.010730578266615685;150.0;0.19261262426206177;0.12011965511323933;0.014475764700839668;163.0;0.21580158513579029;0.09124051625243165;0.008351352226269156;157.0;0.18798921382836212;0.0723535257246171;0.005252138848083798;148.0;0.16702881873230524;0.061958816661100466;0.0038512552299745416;153.0;0.15549623089726347;0.055625776805411115;0.0031043190553914656;154.0;0.14614285436218294;0.051629450185333034;0.0026742824988898223;152.0;0.14189828885370268;0.0494044044597484;0.002448764056169181;153.0;0.13877201219910043;0.048074508781384334;0.0023187017460769344;155.0;0.13586991599954729;0.047521850920651504;0.0022655857639130904;157.0;0.13413456088651587;0.04869241344726139;0.002378430110851203;160.0;0.13391827147974997;0.052069222078277175;0.002719114560218422;156.0;0.13575710164623334;0.061114972377971415;0.00374713569938662;151.0;0.15066603807914516
0.1584843337786469;0.025188929119287332;147.0;0.226803892480016;12.0;0.162350387040469;0.026424741986620114;152.0;0.21660964367276675;0.5762357995574676;0.33228878272450185;170.0;0.2861237545169677;0.19901990546491297;0.039692561994940166;159.0;0.22747356274773414;0.18009457185262995;0.03250274067006673;166.0;0.2172809271699872;0.14496641497360307;0.021057797037216393;163.0;0.1954006359860113;0.12300275710818256;0.015156219597276864;164.0;0.179291551989142;0.008846309414094566;7.850923861193929e-05;149.0;0.06387677855062614;0.1002672625671915;0.010075025705688495;167.0;0.16695691448696207;0.09611523427749614;0.009258111023478654;172.0;0.1660007992007979;0.0944119072413646;0.008932520427818634;173.0;0.1655567945142576;0.09253891003386205;0.008582582516361686;171.0;0.1648617421550996;0.09252726085609463;0.008580809487418042;171.0;0.16521525178561766;0.0939035994918709;0.008836990712879736;177.0;0.1661923297518394;0.09707479224273882;0.00944505576729911;181.0;0.16800259436835913;0.10577551183866475;0.01121329834894356;166.0;0.16668130154187877;0.0563337309114075;0.0031808332192421298;167.0;0.14124001280948467;0.052975512583002475;0.0028118675819066566;166.0;0.13616948712202934;0.055702131395087576;0.0031100219816668833;161.0;0.1368624663461748;0.0782056964427813;0.006132049139244253;149.0;0.16038300448157203;0.0915251102369609;0.008402693824777478;159.0;0.17448222615451572;0.0710986558822672;0.00507037161560166;146.0;0.1546666327031612;0.05690457811195544;0.0032457997608055637;151.0;0.13954692641604244;0.04829433280189981;0.0023352950176285282;165.0;0.12758279492335997;0.045233178468467944;0.002050442855084987;153.0;0.12427102820662225;0.042363503625542816;0.001797787142145904;159.0;0.12135383098465731;0.04047384354047987;0.0016407100197117952;153.0;0.1185101966845145;0.039303113875481514;0.0015472643396065337;154.0;0.1163610756956893;0.03943022444953953;0.0015565310582296202;154.0;0.1160209429650899;0.04125518446640255;0.0017026275575179445;158.0;0.11595860859884265;0.046033384706443164;0.002118191139765916;165.0;0.12004023358196379;0.04857992688786775;0.002365614984121036;153.0;0.1269220594690259
0.18161058250095313;0.033084374885128415;129.0;0.23818700357438638;12.0;0.1852559499930383;0.034429499935529906;141.0;0.22847264133721334;0.579132502196092;0.33635812665005743;131.0;0.2651023490480464;0.216977431680236;0.047225594861909935;149.0;0.24370663464177433;0.1975173617495328;0.039131232839460066;151.0;0.23169504642187513;0.16065616973280902;0.025886913129734002;145.0;0.2083566708022921;0.13626434771444815;0.018623941336579235;148.0;0.19344899806407212;0.010825936191714285;0.00011755843116989992;146.0;0.0634562519183136;0.11113356329549653;0.012384977886779414;158.0;0.18260033664510594;0.10710521649716624;0.011503960006408619;157.0;0.18238269488643097;0.10536772715222968;0.011135435979556199;161.0;0.18244290861603935;0.10405152729795707;0.010857403653642189;159.0;0.18237501502229864;0.10392525058824559;0.010829598322868124;161.0;0.18233079436242478;0.10560395916996401;0.011184488026028006;163.0;0.18382880309930208;0.10888006932408602;0.011888820426090149;162.0;0.1848549301282625;0.11578884936907395;0.0134463790916662;156.0;0.18007362437464083;0.10997720411408941;0.01212716201492641;151.0;0.16799655037020217;0.11023116705315013;0.012183259530218924;151.0;0.16541845572982458;0.12546039173395745;0.01577415161956055;144.0;0.17775386834396512;0.16114907380747423;0.026032815266792367;142.0;0.21099266271193504;0.1581288457720013;0.025071987744571717;157.0;0.211159399011416;0.12381463387337525;0.015370627697254002;144.0;0.18459421556242014;0.1059762465081301;0.01126003272370405;146.0;0.16670654163629334;0.09884726011031303;0.009790972282980093;146.0;0.15792430934502044;0.09161581804566254;0.008414297119282666;145.0;0.15185919071702864;0.08814200896348294;0.007788160978148122;147.0;0.1498496957625294;0.0861013693710684;0.007430775915130052;144.0;0.1473180438316466;0.084813834400155;0.0072101467618140664;145.0;0.14668699325238158;0.08524234785239705;0.007282395516093398;145.0;0.1471260797687965;0.08891641071931558;0.007923389055541005;146.0;0.14894553832364624;0.09694980844662328;0.009420698456360054;149.0;0.154934231656222;0.09634424977217174;0.00930388307738278;147.0;0.15470609723561382
0.14188023805202407;0.020195472245484833;137.0;0.21611084661717092;12.0;0.13776195099566532;0.019037698232498804;143.0;0.20359815615819393;0.23945259340539615;0.05687814773088243;136.0;0.19880025280223101;0.16745513251102187;0.028120056278577193;152.0;0.22371381157853712;0.1588710472216903;0.02531596169341137;153.0;0.21715687160605393;0.1260001310108608;0.01592288317801491;150.0;0.19645658638949764;0.10353405222163434;0.010749298113144764;146.0;0.18092351874812118;0.009934487303949885;9.90238356893727e-05;150.0;0.0625413914870263;0.07939067122591643;0.00631713948704806;153.0;0.165092298462238;0.07632796658412053;0.005840013297545362;150.0;0.16470357994007057;0.07513173189199344;0.005660693695793746;154.0;0.1646667116084871;0.07489521122067759;0.005622907519921732;151.0;0.1650821368594264;0.07444933571607514;0.005557036172968137;153.0;0.16486008454543885;0.07546301090689121;0.00571104552480737;150.0;0.16662403916675572;0.07664147707492179;0.005890695953535253;148.0;0.1678772247964448;0.08081033020315205;0.006546281152428194;151.0;0.16134146620100565;0.1484262450684027;0.02209334667882937;136.0;0.21624258396023474;0.14425666984433877;0.02086758866881351;136.0;0.20960917581967775;0.15837293207317066;0.02516002917000565;153.0;0.22042535649089787;0.2134686918464477;0.04569847821609378;147.0;0.263108399216968;0.21221455459384161;0.04515567875095945;149.0;0.2676295695314303;0.1612121442454864;0.026065958836452335;148.0;0.23341171450089107;0.1349421616464761;0.018265831500716426;151.0;0.21020981721272242;0.12535469434679397;0.01576309409816759;146.0;0.1997758756902368;0.1128669617940637;0.012780244715256014;155.0;0.18982682454012917;0.10795149924776674;0.011691721246630623;155.0;0.18639499011208252;0.1047428972362587;0.01100688312985157;154.0;0.1832415768969239;0.1031698457382257;0.0106789026314805;157.0;0.18232400468888924;0.1030893584781239;0.010662188958783334;160.0;0.18142705036648454;0.10637944936577085;0.01135365304046013;159.0;0.18243411006748464;0.1138389495212475;0.013001166405571385;156.0;0.18657251112433648;0.11980493131534899;0.014398966722738857;152.0;0.19319300426165364
0.12937696678805896;0.016792652259595125;149.0;0.21478236849785434;12.0;0.11719340089390035;0.013779398020059288;151.0;0.19909657606078762;0.12756082889041473;0.01625366571278721;165.0;0.19352893051362452;0.16311019322210313;0.026689723147424467;168.0;0.21702301296687312;0.16010418412335023;0.025717229976313646;159.0;0.21842258410470636;0.12352469751281028;0.015306855275461264;157.0;0.19813817154561003;0.09920500204017307;0.009870851796338393;154.0;0.18038320676304176;0.008077291003013302;6.545059847160882e-05;151.0;0.06332750104441501;0.07374136830347512;0.005453241050705262;162.0;0.16277611994388866;0.0700994323997425;0.0049278466999787725;163.0;0.16169415112543414;0.06878564884396006;0.004743959185389306;163.0;0.16092722902787168;0.06787980229161175;0.004620552516015427;160.0;0.16088576409751593;0.06736042930947898;0.0045489533837692955;162.0;0.1605548322348121;0.06835410832972631;0.004683534388732199;159.0;0.16186482728341248;0.0697579656564017;0.004878134167283655;159.0;0.16495081239315817;0.07639974727554077;0.005854846774557442;157.0;0.1606374714091122;0.13922019220257892;0.019416872498279527;149.0;0.22262516240109273;0.13198463763696502;0.017436470117144668;151.0;0.21613867688312957;0.14229800896167766;0.02024332087378709;167.0;0.2203438714722202;0.20869471040938586;0.04361331752584951;164.0;0.26355602945429235;0.21998623961238378;0.04848253409053468;160.0;0.2753638629384031;0.16050874995541428;0.025790081177706526;162.0;0.2345949371847882;0.12892665986168564;0.01664173880493029;164.0;0.2105161158680479;0.10941839481970579;0.011987138835300736;166.0;0.1997825807398925;0.10074514022500361;0.010163260174685272;163.0;0.1858197740497928;0.09495324172404777;0.009024563799717283;165.0;0.18150663239473014;0.09044446357766095;0.008194428460902828;162.0;0.17755510772528493;0.08841794232941044;0.007828667724159665;165.0;0.17553261754954738;0.08791083346625388;0.007738808633090458;172.0;0.17438401720234628;0.09077001310097495;0.008252511928583034;176.0;0.1745169129395729;0.09787726812286465;0.009594797748102525;176.0;0.17701107647962622;0.10959652264453874;0.012026229650470614;160.0;0.19000431778139482
0.1217473991790684;0.014870562510225248;153.0;0.21848886267875625;12.0;0.10747439071547421;0.011588407823394674;155.0;0.20279349459275597;0.10166828729842592;0.010361827855165618;159.0;0.1940425338216983;0.1347050018657262;0.01820438038199508;161.0;0.20590272809420718;0.14100998965217643;0.019948414794849687;148.0;0.2126243907905229;0.11308743848906509;0.012830309948728006;154.0;0.1948116865121134;0.09123820876030954;0.00835143708848065;154.0;0.17795054907768282;0.008362591034974453;7.014793755942555e-05;150.0;0.06533347206399587;0.07066097514332613;0.005009079741795056;163.0;0.16473876330440604;0.06780164142189876;0.004612026379524716;166.0;0.16360028779372449;0.06727472477127121;0.004540658741681279;164.0;0.16360762302109452;0.06659324429632403;0.004449059540525128;163.0;0.1635100372147638;0.0664709894623163;0.004432722289902841;163.0;0.16335578233879186;0.06765410104964928;0.004592029944964651;161.0;0.16462181100830478;0.06928145366294332;0.004815564172795413;161.0;0.16662051041742298;0.07188188394535193;0.005183881030377896;157.0;0.16138897723070952;0.12461296299385581;0.015577415877830132;149.0;0.21713163658883716;0.1210405954116834;0.014697492964136648;152.0;0.2121694955975507;0.12904166315796772;0.01670072803966671;148.0;0.2151716650464269;0.17907357885726022;0.032168987191406;150.0;0.24645755226044774;0.19908621204083327;0.03976246493411776;156.0;0.26282847253335145;0.14912303747989947;0.02230272011912735;158.0;0.22480711991294336;0.11892637357969923;0.014180507735988718;151.0;0.20013022664501837;0.09805621221129095;0.009640085192448718;145.0;0.18967683296275112;0.0902044331653562;0.008153848186926549;146.0;0.1733764211797095;0.08470107625277234;0.0071891993287034285;145.0;0.16882300708322492;0.08031665207824598;0.006459916644220652;144.0;0.16534182104556802;0.07832892495170728;0.0061459219846619045;149.0;0.1634358115152264;0.07788965764105776;0.006074646903742569;151.0;0.16257915864619127;0.08110298798017691;0.006581598565140997;153.0;0.1636613713467235;0.08847476305751764;0.007829991738868475;143.0;0.16653721366213556;0.09870788803307536;0.009766669262443213;141.0;0.17827916914907715
0.11551669416141505;0.01338443234327921;148.0;0.21155202409755614;12.0;0.10607345413187019;0.011283508427459862;151.0;0.19848220945064876;0.10165668210377199;0.010359811556060599;153.0;0.18776497785073157;0.12970739885571056;0.01687123439567819;152.0;0.2063109580203079;0.13234841553793056;0.017566178863503316;154.0;0.21183936764060493;0.10682774865199812;0.01144525974155032;159.0;0.19263834172740085;0.08751204412497905;0.007681703715616266;157.0;0.1749689245563688;0.007889703302036892;6.245138608239997e-05;147.0;0.0613944090295741;0.0679468613452599;0.004630561804591591;159.0;0.15960521746235867;0.06539325445076068;0.004288493293139497;161.0;0.15811866335401636;0.06464750061583013;0.004191938161349887;160.0;0.15755482318950384;0.06412933426504124;0.0041249573802691186;162.0;0.15815028260143318;0.06421784735617311;0.004136450022473978;161.0;0.158265852884647;0.06552101092822811;0.004306031525831902;165.0;0.1596696486115862;0.0669454351324013;0.00449545004105894;165.0;0.16152503545656133;0.0688739725483594;0.004757404541213666;157.0;0.15673601333415457;0.1091580141606912;0.011951185845947022;154.0;0.20357032562136082;0.10287805358939224;0.010612620333730902;152.0;0.19395480077726074;0.1045239114298031;0.010948910258595342;151.0;0.19119393002943394;0.13687960966032897;0.018777475456910296;154.0;0.21179993913843534;0.16609111980922478;0.02766653763604752;155.0;0.2373737644014134;0.13268395645607847;0.017648058100167296;153.0;0.21011175022837597;0.10539031245822923;0.011135889903147032;154.0;0.18737952831764718;0.08971874809621934;0.0080740684422769;147.0;0.18110859884436054;0.07839237268082383;0.006161591019495379;152.0;0.16648999987514534;0.07322840601013414;0.005376998660993895;148.0;0.16318448391751816;0.06914090899902674;0.004793100602415422;146.0;0.16085862195423034;0.06699710030105718;0.004500646298265669;152.0;0.15985504231837988;0.065998789663222;0.004367336802196109;153.0;0.15937818948356627;0.06685431298204288;0.004480551932093226;150.0;0.16024751032437448;0.07047775477242414;0.004979245439244669;142.0;0.1628425484811959;0.08709134351724465;0.007604881025299358;147.0;0.16953287002110656
0.10194644110170618;0.010426382418828208;152.0;0.19332960243646202;12.0;0.09589181957325923;0.009223677844644975;146.0;0.18141902907475616;0.10094448881739279;0.010221751830454505;146.0;0.17881681756013001;0.14805964497679655;0.02198906599857243;144.0;0.2073197576822774;0.15062194378349622;0.022754189007069433;154.0;0.21013751593866684;0.11702844319405056;0.013737651697403335;163.0;0.18916255181605568;0.09163249232593558;0.008422728309166065;157.0;0.17216356512972586;0.007440217596131437;5.553750785329043e-05;153.0;0.05957877907388134;0.0654162732761384;0.004293133262005246;152.0;0.15352237586040593;0.06222280608163608;0.0038840491074075244;155.0;0.15119524436811113;0.06063195400879804;0.0036881188960208493;155.0;0.14963089303514804;0.06028617656881643;0.0036462817916212338;158.0;0.15019249347309768;0.059885961182774346;0.003598048672207716;157.0;0.1499480005286858;0.06121156901011321;0.0037589984603450355;158.0;0.1503882027287221;0.06317785184810755;0.004004461647691311;157.0;0.15244520217647886;0.06621015934496476;0.004398022236535215;152.0;0.15139351016972544;0.11190957503640471;0.012562290114937534;149.0;0.20032594735779768;0.10249722540163156;0.010538773996438048;147.0;0.18755235191599176;0.10146008473675867;0.01032483011570361;150.0;0.1801705332189644;0.13050629263968666;0.017079673727889082;163.0;0.2037779651771369;0.1532988053386064;0.023555651197253887;159.0;0.22987010130815502;0.12561573494708012;0.015819976782486044;157.0;0.203522092529732;0.10383506454229327;0.010810002005577397;155.0;0.1850644924601885;0.0933944376205741;0.00874702842616879;150.0;0.17942902668848734;0.08132986164052539;0.006634094077261239;156.0;0.1671210939504713;0.07591468405412484;0.005779661530453126;155.0;0.16369445400092567;0.07222845544555787;0.005232058197780598;158.0;0.16144806092193068;0.0696331774180332;0.00486338720745393;157.0;0.1597440577206038;0.06870972277319763;0.004735739781691454;157.0;0.159409074992325;0.06888714011924527;0.004759580932804292;159.0;0.1604386770286143;0.07202155382437982;0.005202309279285416;156.0;0.1632919143109441;0.08970081574283988;0.008069184741574732;149.0;0.16917964677557806
0.08647035280721962;0.007500100421325018;161.0;0.18757764769740262;12.0;0.0858276489661311;0.007387277926847178;149.0;0.17773499041628035;0.09792886513416987;0.009619929077059362;149.0;0.1798872633696606;0.14116361526551033;0.019991894400685526;137.0;0.2036417617488911;0.14226369595537441;0.02030510457660643;141.0;0.20190692800449175;0.11143183196918269;0.012457190305072797;151.0;0.18324616428553112;0.08777708104284725;0.007729639353749574;150.0;0.16834842791669938;0.007917067652192236;6.285666179460068e-05;153.0;0.06309020135435432;0.06189847862407036;0.003843729505222538;145.0;0.14966966347586186;0.05857845416297291;0.0034425144165138436;148.0;0.14758009346230616;0.057256377378580206;0.003288758822575265;147.0;0.14683350951355992;0.05723234312731363;0.0032858115692089886;150.0;0.1472044228358809;0.05693702664660172;0.003252205105696739;151.0;0.1474417372185003;0.058351478277496024;0.003415822764591879;147.0;0.14795351350761463;0.061140205589166295;0.003750072698595207;149.0;0.15079609795185428;0.06189512429241292;0.0038433515207838154;149.0;0.14705524631574143;0.1094426190834382;0.012008543119316428;138.0;0.19839051566154095;0.1070520908768195;0.01149123918921897;141.0;0.19137162262825239;0.10476288894635574;0.011007560866614344;144.0;0.18112023691224616;0.1279655414851311;0.01642541650099589;158.0;0.2012523086979924;0.1368594555252785;0.018785206312642366;165.0;0.21885969934320434;0.10961847984324652;0.012048761522486308;165.0;0.1969088535223412;0.09218523706847088;0.008520349467731184;156.0;0.18092840999507534;0.09155311398925252;0.008402253748127319;141.0;0.17795352009559862;0.07353137407890654;0.005421291027796153;153.0;0.16050006503432437;0.0680438788905902;0.004641987105460956;157.0;0.15536535210175095;0.06539129231113702;0.004288392196115789;161.0;0.152706650419514;0.06326083771842883;0.0040136619655140775;154.0;0.15089223824687412;0.06277147759555883;0.003950991407253822;151.0;0.149665509941655;0.06311165658104124;0.0039936764390140584;153.0;0.14999806628874607;0.06580925075927604;0.004342168004874872;148.0;0.15243572713217973;0.08082520613445236;0.006551424387624213;150.0;0.16308548883113375
0.086001928450473;0.007420494703064012;169.0;0.18001438618067123;12.0;0.08438221971206183;0.007143493878420629;159.0;0.1746958850995856;0.08936920615739506;0.008011425681988236;146.0;0.17309820271936893;0.10878677602206906;0.011867172220680863;139.0;0.19266611507594186;0.10212323578457887;0.01045487576232784;142.0;0.1874131128394861;0.0826696618740674;0.006853440527768361;154.0;0.16816123601140534;0.06928317942180291;0.004813195852082121;158.0;0.152559700539706;0.008264171749103514;6.85195858281089e-05;148.0;0.06413863833002809;0.05251954438754085;0.002766413342330974;155.0;0.13479626010500528;0.05013594037342857;0.0025211368952429355;157.0;0.13232149179513514;0.049789788462579705;0.0024864399048507933;156.0;0.13248071421242957;0.05021619376863791;0.002529029168609246;155.0;0.1324630614509357;0.05029755324086523;0.002537701925722514;157.0;0.1327215524488692;0.051792662014310396;0.0026907616591262955;157.0;0.1331673453623217;0.0544410849709393;0.002973063575750046;158.0;0.1363524374174858;0.052138045461714924;0.0027267401613086228;156.0;0.13259344139739596;0.08224894551474245;0.006786324639386706;153.0;0.18161665722601525;0.08218849972843556;0.0067751214691213965;146.0;0.1779394124998015;0.08039438497999363;0.006482243927251307;153.0;0.1671507811156268;0.10405359551792641;0.010861005907185462;154.0;0.18306585172584952;0.11667586915031589;0.013657242113123429;161.0;0.20246511286046762;0.08886569831153027;0.007920796839869624;163.0;0.18662517493578773;0.07004917265262518;0.004921170717963953;164.0;0.17035854924879446;0.06854206845692307;0.004712527361320934;151.0;0.16340882461196415;0.05326836757157041;0.0028451212150583404;163.0;0.1497418900079648;0.04912475276808147;0.0024196877547328077;161.0;0.14492551981606586;0.04730553031963079;0.0022433886541526403;160.0;0.14228103230772918;0.04636652868153759;0.002154707365877494;155.0;0.14126291608134162;0.046353102662972205;0.0021538347200462113;156.0;0.13993334857460887;0.04750325113509383;0.002262479142782018;160.0;0.13988293992975054;0.051233853265040506;0.0026328387866970606;152.0;0.14208085122368208;0.059042834237119944;0.003495457765615251;163.0;0.1520792933464749
0.08138822274284715;0.006642897210570523;169.0;0.17285044308494185;12.0;0.07756456484430249;0.0060342706905988945;166.0;0.16485306160877472;0.07778824532688969;0.006070668108695153;142.0;0.16404976053480408;0.09030863936736278;0.008182277977314576;151.0;0.17946691874517498;0.08450235826647921;0.007163942408426393;154.0;0.17580913291926598;0.06826699023710614;0.0046755255901371594;160.0;0.15504042668417647;0.05808021402572541;0.0033838980470438855;163.0;0.14109374072848907;0.008240282004550561;6.811272572906827e-05;153.0;0.0623141839846496;0.047197680184096535;0.0022340783188720087;156.0;0.1278363340529436;0.04548132752823718;0.002074465048886709;155.0;0.12549143826509476;0.045401459735144534;0.0020673639485791046;155.0;0.12602387502610377;0.04638127268244765;0.0021573145437814344;152.0;0.1260278950454599;0.046426394414750126;0.002161753144545392;155.0;0.12615828312538;0.047990511290705744;0.002309585946998848;154.0;0.12649293632497022;0.05142930886865797;0.0026529611344280365;155.0;0.12912032703897633;0.04741468403373789;0.002254671546945416;153.0;0.1234832909875246;0.0652993116476793;0.00427737597592417;159.0;0.16138724125708953;0.06568486667615715;0.004328490047829839;150.0;0.1570750045745379;0.06031108182099422;0.0036486625293547822;149.0;0.15343402753696678;0.08410685743897188;0.007096241466029392;150.0;0.17259614152043598;0.10531233259577831;0.011126536980679896;148.0;0.19556685396286752;0.08344767999114464;0.006985043868713999;153.0;0.17921380806527076;0.06663257375422357;0.0044536018015348495;160.0;0.1627987556994631;0.05303636064022767;0.0028210985653797575;145.0;0.14521381435076802;0.051826296479138265;0.0026939834766501;158.0;0.14259604401445736;0.04807245058393075;0.002317198993993551;152.0;0.13825198405840877;0.04581460456883869;0.002104868580915419;152.0;0.13523990698191296;0.04469880789444863;0.002003268904302074;150.0;0.13375094447559807;0.043777229997302665;0.0019216822909265802;151.0;0.13206994584907947;0.04479399095049568;0.0020113117955584503;153.0;0.1319389447213451;0.04711018613203982;0.002224702991023451;146.0;0.13288981795088878;0.05588697447078732;0.00313266766339263;160.0;0.14603954663723795
0.06838082358156172;0.004689905073770103;160.0;0.1544702088556789;12.0;0.06439159059452622;0.004157141160279133;168.0;0.14623974968405065;0.08839437980785385;0.007758392878789293;147.0;0.1542823954029172;0.08035697886899003;0.006471519934953594;165.0;0.15922118668251511;0.07854954424246177;0.00618423343957964;159.0;0.1605833162854455;0.0633912781582006;0.0040293429424696995;154.0;0.14419162232336183;0.05123701434106746;0.002632988590079016;153.0;0.13196314583605936;0.00910985064437315;8.322152506005177e-05;162.0;0.0633446425108487;0.041583301483310915;0.0017348217925604065;151.0;0.12137975914094344;0.04008475865421131;0.001612033136176205;153.0;0.11966578103307489;0.039814446525623125;0.001590319354694632;155.0;0.1207512956171654;0.04017361437954155;0.0016191799981170368;152.0;0.12053441258610968;0.04046109983498494;0.001642408904944073;159.0;0.12133652359587738;0.04168576387918989;0.001743313565223858;155.0;0.12171171244935726;0.045403074541822366;0.0020681364746016504;156.0;0.12447137460306865;0.04196798676594826;0.0017670422095027488;153.0;0.1172582167023268;0.048968389218617486;0.0024052947695382297;164.0;0.12185764518749194;0.05357437523117804;0.0028789514426584466;161.0;0.12006869298723886;0.048106702422087866;0.0023213936553990663;156.0;0.12008057107248604;0.0650032228648517;0.0042391783169574305;166.0;0.13589339430988578;0.08253425115749756;0.006833989307254222;166.0;0.14828344291533455;0.06810442728788248;0.00465326474659707;169.0;0.13474276709313876;0.05622622506677184;0.00317161232299704;171.0;0.12342212702081043;0.04110142394805643;0.0016945413102404318;153.0;0.11505637444412896;0.04415457575957319;0.001956000929654903;167.0;0.10972020628843925;0.04063488098140556;0.0016565906706294705;157.0;0.10724891025383403;0.038224951747855195;0.0014659236413018576;156.0;0.10491591156654356;0.036474267688809535;0.001334722078724377;152.0;0.10319401972012274;0.03496890800854127;0.0012268238177365616;154.0;0.10146504412688882;0.03488648382244191;0.0012210150656886726;150.0;0.10146788375747899;0.034963745470190516;0.0012263578287663819;150.0;0.10170079347432451;0.04827840977828236;0.002338423847038392;168.0;0.11323848560345806
0.09219693364979234;0.008522004291109924;171.0;0.1689587935858848;12.0;0.09057921790077426;0.008227791893223953;171.0;0.1599829897557444;0.22649357965548333;0.051359617362511906;167.0;0.184923322612812;0.14158519880256745;0.020084987617822483;152.0;0.1792928455696471;0.1516244923896483;0.023031029379623293;147.0;0.18859902697397815;0.12471456655359468;0.015586353898179934;147.0;0.1729611462870982;0.1001843300674591;0.010060239270953685;150.0;0.15734783658883997;0.009535973637953655;9.121586897764112e-05;154.0;0.06690711913596858;0.07591577192322936;0.005778786256991538;152.0;0.14132420101890536;0.0720893864517445;0.005210660556239027;153.0;0.13971522217964086;0.07033123095598891;0.0049589045787541055;155.0;0.13988916929035902;0.06872411130346907;0.004736087258594853;156.0;0.1391446191410607;0.0674015107292603;0.004555082544885659;158.0;0.13879794621304262;0.0680200947688651;0.004637962327856186;158.0;0.13998483743158743;0.06887108738099855;0.0047543053924905985;159.0;0.14226593998542625;0.07927230650293;0.006301016769908443;155.0;0.14047423144568358;0.05479723103923385;0.003011951657102986;155.0;0.11014763659418667;0.06135411703069329;0.0037761765661896694;153.0;0.11425362362126495;0.06935190348701091;0.004825280132998769;158.0;0.12287525447945245;0.09904561417717737;0.00984066128005056;171.0;0.1501269220650844;0.10791746117173176;0.011680452284258338;173.0;0.15440281652813617;0.08512851859343873;0.007267014473429272;172.0;0.13654843715594642;0.06938909565897204;0.004828828858321012;167.0;0.12532816320438486;0.057797015083786006;0.0033511341182900904;152.0;0.11173279517593353;0.0564798554074322;0.003200030987004513;164.0;0.11326882540128443;0.054113915026123866;0.002937803291498263;155.0;0.11139956614982031;0.052452278975764224;0.0027601383322552507;153.0;0.109799088619679;0.05207529581843441;0.0027206578650049865;152.0;0.10854061787311177;0.053069049663697854;0.0028255035479797046;152.0;0.10845674395740064;0.057257736262910496;0.003289150316684954;153.0;0.11213490494431005;0.061439034013225056;0.0037870521095153477;156.0;0.11497579254662899;0.059798579985959444;0.003586946136974723;166.0;0.11641101426065152
0.14005444191092836;0.01967737606158859;149.0;0.21590205114738795;12.0;0.12859682730656385;0.01658985925191858;147.0;0.2013450728666331;0.24413298804880088;0.05979394306518731;151.0;0.20994119027077343;0.17157649281454251;0.029534652405244822;127.0;0.2124565773888328;0.1774501992583054;0.03159144839952869;131.0;0.21459492519239776;0.142401615754291;0.020343685704315474;134.0;0.19081151913919986;0.11523780237182144;0.0133227268787572;138.0;0.17384336140475734;0.0098067621123229;9.642242189274301e-05;155.0;0.06960292544846351;0.08799679557694715;0.0077681748576875305;138.0;0.15628544193964927;0.08395877854299748;0.007071604959990155;137.0;0.15484331687730926;0.08226076293372775;0.006788824528225393;138.0;0.15452731232419675;0.08059328593240642;0.006515813685431149;141.0;0.1543634040472481;0.07903971346944398;0.0062673247585132465;141.0;0.15350064616314227;0.08008915651860317;0.006434443417489812;145.0;0.15558595853286805;0.08046053377713591;0.006493848066869525;144.0;0.15797843506634693;0.09213826400004632;0.008516191398167616;136.0;0.15687329991153534;0.1205744118960264;0.01456083291230567;152.0;0.1899519407398598;0.12579735811229026;0.015840406777230823;146.0;0.18782359665636048;0.1333551903914148;0.017805065975812696;151.0;0.19507084201989164;0.18496300251757405;0.03427588361198194;153.0;0.23780674352101724;0.18945433630912503;0.03595966155785701;154.0;0.24431627115305185;0.14699552170868466;0.02163624387068119;160.0;0.21252025122041412;0.12168092121852692;0.014819535028751187;158.0;0.19477573854427463;0.1141929631149104;0.013066052865736866;151.0;0.18280584181463622;0.09919651467814057;0.009847909804677379;158.0;0.17708340146752838;0.09388258555677413;0.008823532224697212;159.0;0.17319631140379893;0.09094114021712858;0.008280122434984884;155.0;0.17076638819930978;0.09085823051656622;0.008262983024048145;156.0;0.17005785379141272;0.0921363468037874;0.008498619443653028;154.0;0.16960193933123274;0.09496749356411727;0.009029038382644504;155.0;0.1722986840882551;0.09756499089682256;0.009538105261203222;157.0;0.17415496371295983;0.1078877584483159;0.011650550882842536;162.0;0.18152480248189343
0.13402744378041437;0.01801786114079724;137.0;0.21982981262386322;12.0;0.11853259041438621;0.014094304262949704;146.0;0.20289201893755632;0.13783073416236127;0.018962420260924717;148.0;0.1937634353254099;0.14736811716962664;0.021742008531312206;139.0;0.2167160534789607;0.1464970327675059;0.021475410201092792;140.0;0.21350166368016013;0.11333367351611805;0.012839270879799858;139.0;0.1861182595050533;0.0908700620632098;0.008259020026773594;147.0;0.16815704916064977;0.009388949842069528;8.841895749658806e-05;169.0;0.06761276954642612;0.06935114092767179;0.004817268240082959;147.0;0.1514354513531884;0.06689462200875647;0.004482138696359621;146.0;0.1505716440054779;0.06611796106671092;0.004380859037417283;149.0;0.15029773887099007;0.06505415826819114;0.004240791458469728;148.0;0.14991949426814483;0.06473266645489158;0.004198207295190342;148.0;0.15013540747933174;0.06557291470447245;0.004305317735032588;148.0;0.1508379443421713;0.06541104313282509;0.0042803804614051835;145.0;0.15186908580106356;0.07137102525215945;0.005100104810963535;147.0;0.1519922495047016;0.18329426867157397;0.03370535613346286;150.0;0.2501420661042554;0.17899011713498045;0.03214034247639233;156.0;0.23876779421648503;0.19168516773614305;0.03685923201287468;161.0;0.2413263392566387;0.2608515769690911;0.0682618554184441;151.0;0.28859535072266257;0.2634308121002005;0.06962005917689149;154.0;0.2977792291273169;0.2004584083091028;0.04031370994351246;159.0;0.2563820705168899;0.16853237840925223;0.02849460069698307;161.0;0.23485445018740245;0.15879257677730876;0.02529625566856212;158.0;0.2297673287270539;0.1392661051766316;0.019457353810583618;164.0;0.21510567340926504;0.1314346880016233;0.017330407540467288;168.0;0.2113163640571523;0.12681546864511917;0.01613255546724253;169.0;0.20889090995095672;0.1284595281517004;0.01655224683262741;167.0;0.20839939811343472;0.13863742155373376;0.01927274822483556;165.0;0.2110317127286391;0.13487125718802992;0.018244104573856446;163.0;0.20844981218077344;0.1256070540869735;0.015827185280303774;162.0;0.20792538517707296;0.15232806716943506;0.02327821932368762;162.0;0.22054434022715647
0.11552847851485971;0.013391002807396968;159.0;0.2075313194298842;12.0;0.10362873931825199;0.010774384578831668;167.0;0.19180928784131962;0.10573166293939214;0.011194693073433855;162.0;0.17943747862713294;0.13211721280428496;0.01751193487608568;157.0;0.20917994209766358;0.1311610161789861;0.01725905709577238;161.0;0.2106197434964924;0.1031938482204814;0.010683711057129392;159.0;0.18768330221091;0.08326053786174514;0.006954911847659554;166.0;0.16953566505818107;0.008301962701962855;6.91478830002037e-05;168.0;0.06164230789584025;0.06522682435012762;0.004267683842987279;157.0;0.15079458245178193;0.06344013419573642;0.004037334144520503;153.0;0.15026052084734007;0.06326670641692154;0.004015190542175395;155.0;0.14954431236130367;0.06320099957951475;0.0040071143852959;151.0;0.14913957734198266;0.06366873943112843;0.004065750106879614;148.0;0.15073078320558503;0.06515879823934587;0.00425872979307845;147.0;0.15090645630258726;0.06753146836569895;0.004574910000550735;148.0;0.15283956934707457;0.06542954958424839;0.004294808879225542;158.0;0.14962879573633342;0.18314094705616663;0.0336115525317996;147.0;0.26176918472262745;0.1738197704041806;0.030239350299319387;155.0;0.24807193016867513;0.18337598524727536;0.033673605168175136;151.0;0.24614958223122596;0.2407218245157596;0.0580461653489745;145.0;0.2820671493326837;0.24673366259033247;0.060981477375514584;149.0;0.2906281087924128;0.1913486997437114;0.036668874942560645;145.0;0.25358832926013103;0.16270129365272457;0.02651029236593601;151.0;0.2340557578192079;0.15422909148670821;0.023828164182792946;147.0;0.23423233032156493;0.13492077450920384;0.01822308937225508;155.0;0.21481839325733185;0.12834347285904604;0.016492797674126203;158.0;0.21123255584305523;0.12599577037881857;0.015894084548599453;162.0;0.20933110282650005;0.13300358473456092;0.017710369433487753;158.0;0.21052072957746196;0.15513831644665937;0.02409848636811259;154.0;0.21833066409049517;0.15246918456842343;0.02327109920722916;151.0;0.2170585217663553;0.12695221678015617;0.01612538796910235;155.0;0.21156223191858767;0.14659056537172913;0.02152383765197867;152.0;0.2203776289900622
0.10792364286459884;0.01168537605112338;161.0;0.19698819847553178;12.0;0.09975096032447618;0.009981575635140492;162.0;0.1816979205828488;0.09236864459291755;0.008559886330361472;147.0;0.16797025033659202;0.1226636190022958;0.015090940953491864;153.0;0.19747282191223733;0.1239668895106456;0.015415525420412933;160.0;0.20124179595919264;0.09857014529816292;0.009742672129074053;157.0;0.17993989020608206;0.07863128218668207;0.006200564656958308;161.0;0.1618226975275522;0.008559018475883522;7.348034964556332e-05;168.0;0.06257303349299835;0.06126174442623906;0.0037641405911494155;152.0;0.14279810079520422;0.05942324798941058;0.0035419155233449347;146.0;0.1421219821735746;0.059666717773494596;0.0035712125204784696;143.0;0.14166788332291924;0.060131614648220234;0.003626853760603168;145.0;0.1415567617319077;0.06114013875672883;0.0037500714477643714;144.0;0.14342084678768985;0.06279594991723852;0.003955303606935796;140.0;0.14376916111986118;0.06629329559232942;0.004407933778986485;141.0;0.14624266460212768;0.06110676845583772;0.003745142473951867;151.0;0.13964102492675362;0.1527168044155655;0.023396307118567345;158.0;0.24872185534267205;0.14817834529997367;0.022028826613297494;156.0;0.23657117466899835;0.14351134033898527;0.020662468906898414;143.0;0.22862618580080815;0.1706771108364313;0.029222764055573714;141.0;0.25018794336104627;0.18518030936585925;0.034402617393424824;144.0;0.2636107862988878;0.1539821003554935;0.0237882334516191;140.0;0.23475382266423833;0.13238099288034866;0.01758214952976147;146.0;0.21800157087888813;0.1343721887761307;0.018115055805263673;151.0;0.22527475808024336;0.10836773548156897;0.011781204899049713;148.0;0.199440119765306;0.10404510239569865;0.010859883674018436;150.0;0.19656047037082133;0.10389119876220371;0.010826166448042924;152.0;0.195090205792604;0.11172885959775779;0.012518024154091183;150.0;0.19689443528731834;0.13267611248563715;0.017635721893915223;151.0;0.2054203105972107;0.13179190730020793;0.01741171276432168;148.0;0.20722062677412062;0.11039056708503925;0.012224650919269624;149.0;0.20081226013009382;0.11675317987199602;0.013675496275952175;145.0;0.20286225553837658
0.08130307741106953;0.006631006281635711;162.0;0.18626549384555424;12.0;0.07715078777360163;0.005969586454108583;158.0;0.16776146716430196;0.07039148012990189;0.0049697447961691696;157.0;0.15582007554085364;0.10602623701569154;0.011273287896856856;160.0;0.18451479705465898;0.10975016205671988;0.01208161089954412;162.0;0.18419368310388096;0.08530869141929212;0.0072993994897558225;154.0;0.16264829612746978;0.06596166406451129;0.004363432632841017;162.0;0.14535474896531955;0.008788496899111391;7.747166047322797e-05;163.0;0.0653111383248677;0.04843843543842252;0.0023523425822896205;163.0;0.1302041961466684;0.04618892821800444;0.002139369088567848;160.0;0.12957950742748808;0.04596639901334014;0.0021186332089005236;155.0;0.12915551794671212;0.045885645064565016;0.0021110538284004224;160.0;0.12932757988371377;0.04641485905234839;0.0021602196126776075;155.0;0.1298435927763757;0.04728066606924995;0.002241380344320712;154.0;0.13031700664457882;0.048563419515005146;0.0023654132524630078;153.0;0.13172567512893557;0.04938426595127879;0.0024457330397717296;160.0;0.12713158050371848;0.15239293096269435;0.023283115019932396;154.0;0.23400045622229862;0.14933110049797108;0.022366512708978884;155.0;0.22411087875945987;0.14360810277060576;0.02068377362106582;146.0;0.21326177513523278;0.16476510834748406;0.02723251557186872;153.0;0.23465569907698122;0.17604717981477414;0.031093320781169026;162.0;0.25467938690719194;0.14160470120820562;0.020114553509855245;156.0;0.2221587624663591;0.12020268425385927;0.014491119058824897;156.0;0.20272504168823682;0.12415818042763987;0.01545372300215381;143.0;0.20804187168547938;0.09791237421042538;0.009613380158376119;154.0;0.18569477322623557;0.0934712072278337;0.008760437796371296;158.0;0.1830937578472413;0.09142379630760328;0.008380165802006363;158.0;0.1819555122983101;0.09321477178334762;0.008710003326364754;161.0;0.18224857212414858;0.10299276097923833;0.010633163171149823;161.0;0.18813556014358543;0.10276544143440329;0.010583806322239906;161.0;0.19064647739793683;0.0996898652613606;0.009949924174244146;154.0;0.19024494877576104;0.10508703299868609;0.011075846634781885;151.0;0.186929696714645
0.0905812288529083;0.008230334884766521;170.0;0.1942849113780396;12.0;0.09168121268671559;0.008427988625822409;173.0;0.17823130519758437;0.08947099007605391;0.008025164763636381;166.0;0.16863518984307352;0.11785863587690876;0.01391696942040476;174.0;0.18605881785057868;0.11360451467160383;0.012926485284279903;173.0;0.17972965606165867;0.08895015527462811;0.007923193431548459;171.0;0.1578960522876609;0.07198376292620423;0.005185623613314261;177.0;0.14296535228793925;0.008767039736567773;7.704925507550634e-05;155.0;0.06721720809173579;0.05417540713047664;0.002937829165937237;179.0;0.12893914807275328;0.050982013181928805;0.002602023805154025;178.0;0.1274118273539984;0.04997433035980001;0.0025001273655035705;176.0;0.1273865473216707;0.04907581844675476;0.0024111031009200813;177.0;0.12728972759442106;0.04866357480190411;0.002371138621538713;172.0;0.12756653378263305;0.04928954864939574;0.0024328784103062064;174.0;0.12898948080619083;0.050105015142680134;0.002513062787367336;173.0;0.13102396819561987;0.05687336356410815;0.00323771675334081;173.0;0.12770913857440758;0.13539613418510135;0.01838229043671236;150.0;0.2159459403872737;0.1324995928449588;0.01760662868691485;152.0;0.2114847453795939;0.1265896153580561;0.01606775684524688;147.0;0.1986569285755944;0.14111992129110362;0.01997242125881198;160.0;0.2173610896729228;0.14801701309757961;0.02198003898468605;163.0;0.23705211511057803;0.1173061697949941;0.013805148530908157;169.0;0.20607465549214762;0.09878339530378025;0.009788302238788443;165.0;0.18648705323757261;0.10367771686878768;0.01077755709439861;138.0;0.18421774835157448;0.08097412481858095;0.006575912940505594;166.0;0.17067510747684736;0.07624440528847688;0.005828773047438297;169.0;0.16674907214264234;0.07309441048875444;0.00535589702167729;165.0;0.1643476629285898;0.07307484618617391;0.005350466470748226;158.0;0.16355754730661476;0.07843594627110699;0.0061637255751194765;157.0;0.16805881618334934;0.0827052243020717;0.006857436999757904;155.0;0.17124000185404029;0.08569227311512008;0.007364910277771399;155.0;0.17486233442254803;0.08598101715220133;0.007414968227702354;165.0;0.17198500829610583
0.09273010878860853;0.008621349237261069;158.0;0.1880426359274694;12.0;0.09296254373129541;0.008663918091372888;167.0;0.1760747534178857;0.0931186046273275;0.008695887002289666;149.0;0.16962388351155153;0.12096946788491719;0.014681263383582931;157.0;0.18691586393581194;0.12075362371666896;0.014628339474085502;153.0;0.1894015605645266;0.09400915074949208;0.008866362602431059;155.0;0.16737841979755444;0.07485901014930088;0.005621902280898808;160.0;0.15010411186351888;0.008432049083388498;7.133103762728243e-05;167.0;0.06584512186298594;0.05526735027999045;0.003064500492821829;158.0;0.13291650329689006;0.052155727204473167;0.0027291439200890807;156.0;0.13062189359350798;0.051128355309048294;0.002622599926843755;155.0;0.13106693766904048;0.049928279492354385;0.0025009010149368415;157.0;0.12947047163501255;0.049660844497584775;0.0024741944881989148;158.0;0.13035581405600596;0.04982803196012025;0.0024907457524549173;154.0;0.13066508833918125;0.05178626025571775;0.002690566679467529;155.0;0.1331218222760929;0.057881634520319365;0.003361242171932984;159.0;0.13278406966832546;0.12978872631342908;0.0168984656587957;156.0;0.21129651871160207;0.12769984357774805;0.01635786963465131;150.0;0.2047552884504757;0.11239491580020923;0.012670907278558519;153.0;0.18984749837728077;0.1280207782836395;0.016432200764457207;166.0;0.2076550912151023;0.14314069836862808;0.020543394120897535;161.0;0.2273073515045905;0.11385839958956438;0.013001864473217809;165.0;0.20210197273980643;0.09335986939334265;0.008743586866115136;161.0;0.18298763200391263;0.10156805881553693;0.0103497154151389;156.0;0.18247480495253174;0.07394985672141788;0.005486534091236215;163.0;0.1632104557728155;0.06863940532046339;0.00472682323376917;159.0;0.1581810880409099;0.06429311095411928;0.004147015488330542;157.0;0.15510878703098926;0.0635571524028274;0.004051751478102653;149.0;0.1547090444890929;0.06519929384477292;0.004263270016170549;147.0;0.1571484586769411;0.06710631087973983;0.00451773890306808;144.0;0.1572810775632576;0.07455803461744034;0.0055769608494394595;150.0;0.16174960322018936;0.07795862398470675;0.006097537196418541;165.0;0.16522284815295693
0.0783417304347902;0.006157386764619579;152.0;0.16953157587055406;12.0;0.06952127625381044;0.004848928797171376;156.0;0.1587201225441862;0.0674713139201551;0.004566944766292342;159.0;0.15202239297104775;0.09084371778051752;0.008279226476917725;153.0;0.1688892912923189;0.09240593354644144;0.008565482313824514;144.0;0.1732615556343343;0.07131525910528243;0.0051002786076153285;146.0;0.15788542286277124;0.05547102376498262;0.003085079967890453;154.0;0.14219408318754526;0.008035659561905351;6.47841007710423e-05;177.0;0.06384927184541152;0.04028708170064853;0.0016271103693588742;152.0;0.12601057032956478;0.038736367372287465;0.0015044186306633943;151.0;0.12384372779794584;0.03825948051697625;0.0014671436457669444;155.0;0.12341847419941256;0.03795798331252866;0.0014446263724050496;152.0;0.12241519629114656;0.03774322514872116;0.0014286103714077048;155.0;0.12201648701918609;0.03828810235151988;0.0014696035645957576;152.0;0.12230157825657459;0.04061923463748974;0.0016538596809345322;156.0;0.12392300556108521;0.04152447759084449;0.0017282203481536512;153.0;0.12606831904258786;0.12130855643751709;0.01473347558332159;144.0;0.20579038444104258;0.11483595729004335;0.01319424601801074;128.0;0.19400638166213155;0.0974760911150446;0.009504273400983622;132.0;0.17707880128463824;0.11750380609183451;0.01383284220237079;143.0;0.19525764872455;0.13409659914715716;0.01802050886865559;148.0;0.21176685484938934;0.10048430957473005;0.010112414002924302;150.0;0.18783114879532803;0.07952655684610709;0.006329371899516916;145.0;0.1694151250335754;0.09023130843348408;0.008140961112532397;149.0;0.17771755951154555;0.06129068478035011;0.003753433933383085;157.0;0.15176727269357368;0.05837018786122931;0.003401897652557838;146.0;0.148175431508015;0.056162936894892566;0.0031468005268394748;146.0;0.14671207342813358;0.05669935179780363;0.0032050225582680755;147.0;0.14735435679565448;0.057920925463305455;0.0033467346050135064;140.0;0.14824958404171285;0.057171234396641867;0.003269029774009993;141.0;0.14901406968660885;0.06087327184643789;0.003711640233428184;143.0;0.1527075437282589;0.063278656260373;0.00400485337508946;150.0;0.15132138514076093
0.07144760002652877;0.005120430227869697;149.0;0.1427545714219355;12.0;0.07018256901386699;0.004939052259964277;150.0;0.1385065355986814;0.08105554494686547;0.006591499113618414;151.0;0.14052319800986335;0.09362727242971917;0.00879393465450168;156.0;0.15188437563685725;0.08904808047479924;0.007955184345774665;151.0;0.15133220337554876;0.07068873286761522;0.005012434432100499;150.0;0.13864792324020145;0.05671746465230799;0.0032266586505839572;155.0;0.12624780407498967;0.008424079316580587;7.115403991363307e-05;171.0;0.06620087279235845;0.0431128317863279;0.0018646018914995524;154.0;0.11410481386730355;0.04125984820777845;0.0017077699815269867;154.0;0.11259113958155405;0.04027464929802934;0.0016270841218530242;161.0;0.11132698592351963;0.04038449714985654;0.001636022040777595;155.0;0.11162452713479623;0.04013877952477738;0.0016160371557300956;156.0;0.11089217565395262;0.04180241716410044;0.0017526962467305784;154.0;0.1120209488219659;0.04406267915464828;0.001947186525808679;155.0;0.11206711307314916;0.04529364723638669;0.002057979150551611;147.0;0.11450712077336381;0.11735885768917899;0.013816483800938655;149.0;0.1961612132580691;0.11398218641059281;0.013034772955191268;141.0;0.18998285518733438;0.11742925818513533;0.013834296763557553;141.0;0.1810105983633959;0.15624960319636974;0.0244938277809965;144.0;0.21132366667101582;0.1681655783134055;0.02837219660107841;155.0;0.22037055383478127;0.13520907567631335;0.01833980285356526;166.0;0.19379419061791153;0.11152784030631302;0.012477638417337702;161.0;0.17823734655345905;0.095784341989027;0.009203181189130053;153.0;0.17683785518746498;0.09021430567433036;0.008164506361136923;166.0;0.16634801637550814;0.08626295983679565;0.007464224543108374;156.0;0.16428773933599503;0.08300852299042628;0.006912082874008688;153.0;0.16248358700017246;0.08188468709533801;0.006725384564130429;154.0;0.1629542575721895;0.08214100223997323;0.006767628071967465;150.0;0.16314044634207495;0.08346543595091171;0.0069877280042917505;149.0;0.16365487115512206;0.08527746425353543;0.007294428364438532;147.0;0.16521844183300918;0.09644799245807059;0.009330645031818095;158.0;0.16489611549360061
0.10112644074204963;0.010259935165712114;156.0;0.17383189700901974;12.0;0.09935281190269372;0.009903139288820497;150.0;0.16548277037418768;0.37918598229958805;0.14311833162814774;133.0;0.20379196573217734;0.13615815035090909;0.018599755372353248;143.0;0.18494947825167168;0.1395190428799377;0.019529281865615852;147.0;0.19169117882787298;0.10694255322995777;0.011474096306163823;160.0;0.17164578410633727;0.08479952529799725;0.0072144795069889415;163.0;0.15434071619380005;0.008837819934394522;7.835407938416113e-05;154.0;0.06786732595368732;0.06380372870891786;0.004084193869191596;159.0;0.13653233001995613;0.06007805821835282;0.0036208688269299635;156.0;0.13390248591532192;0.058284189937831604;0.003407961396966544;160.0;0.13334678730898106;0.05731621672095065;0.003295824321561384;157.0;0.13309278501551694;0.05686000909680664;0.003243589528896452;155.0;0.13305309978499505;0.05805992728110155;0.003381810307353241;155.0;0.13380467908001137;0.060048773570847105;0.0036173509872877052;159.0;0.13438134939535154;0.0672490406122785;0.0045372078699420434;155.0;0.1369110403366864;0.17853883123149347;0.03196016624130032;159.0;0.2457020341695936;0.1733628606822539;0.030144385998881643;159.0;0.2356622616889216;0.17827061132567262;0.03187450768976707;163.0;0.2304857725463517;0.25457087890101726;0.06501349246347844;160.0;0.2781193098739277;0.25877746723013656;0.06717746994232424;167.0;0.2768393079152616;0.19563650263877053;0.03838725395049353;171.0;0.2390312583123662;0.16068689908969305;0.025891603719332985;168.0;0.2200783858199382;0.14756596326847282;0.021835884350679343;165.0;0.22260844471915145;0.1316244284413906;0.017374191215810686;161.0;0.20316285475877802;0.12480904789064463;0.015620093628298254;159.0;0.19973638068949806;0.12001510684731251;0.014443016793259574;159.0;0.1977338865829787;0.11757096118870984;0.013858912099915749;160.0;0.1972665043483077;0.11807825032853334;0.013975134116954733;159.0;0.19723087969575798;0.11970837613889972;0.014369972891573867;156.0;0.19673827114775458;0.12269969700593503;0.015101197528426992;158.0;0.19839067659074372;0.14342184524798227;0.02063058450632397;161.0;0.20629036074831622
0.15654278727121662;0.02458323953480134;157.0;0.23307618036792235;12.0;0.15156723991632529;0.023046912857231705;152.0;0.21825465709911496;0.473750460095925;0.22503319822762813;156.0;0.2435849592190356;0.19066553843427958;0.03647227157650676;136.0;0.23582527994136637;0.19069504091979553;0.03647889821426689;144.0;0.23990649867310174;0.1474643656933153;0.021815305410293136;157.0;0.21469355884478278;0.11627329107243482;0.013563981546032573;161.0;0.19260216913988362;0.009335052339819022;8.741021605351426e-05;156.0;0.06498002658066783;0.08636766498487884;0.0074840185541987;160.0;0.1685242725254318;0.08133446503739841;0.006637241435095685;158.0;0.1650496892100542;0.07917668131128139;0.006289695807991031;160.0;0.16500426704512747;0.0777382850850482;0.006063229212506478;157.0;0.1647311032813052;0.07781963550179402;0.006075881262527012;154.0;0.1654694674721402;0.07878183882529129;0.006226988877234877;155.0;0.16673210570208294;0.08074439886857847;0.006540331545047822;161.0;0.1680774232433832;0.0905896664190401;0.008233800722154487;166.0;0.16742819163568617;0.21305576504104046;0.04551616088667235;154.0;0.2851945148473164;0.20272038485815347;0.04120116835957992;148.0;0.2723683987348412;0.20558896788270623;0.04238034920863053;151.0;0.26500319019907725;0.28487547300921384;0.08140458536378604;148.0;0.30387673703369755;0.28474813449315145;0.08133839681186163;155.0;0.3043996102992572;0.2113961574130854;0.0448157360784799;154.0;0.2646949420626564;0.17432086001807107;0.03047547332817248;150.0;0.24207814285455578;0.16455615070707175;0.02714443151255291;155.0;0.24924476155619676;0.1431877055709376;0.020563220654574086;149.0;0.22076359565369505;0.13655318414055906;0.018702676032834507;151.0;0.2164957309738249;0.13269619478084754;0.017659623411015894;154.0;0.2146179523943133;0.13198631482382228;0.017471408231961524;156.0;0.2139254603713294;0.13552941930436987;0.018427487434071167;154.0;0.21492693788955794;0.13365394398171404;0.017918748821381073;152.0;0.21312789649863895;0.1343167040145273;0.018094818660470923;152.0;0.21560364007475416;0.15497401995102145;0.024082216224345945;151.0;0.22502891675878642
0.16744722590090272;0.02812369793485135;155.0;0.24401047146757107;12.0;0.15960469110657777;0.02554843004943659;155.0;0.23052503545608263;0.31846100804601934;0.10092405791097617;154.0;0.2213469124141859;0.19345871126622732;0.03754878897587533;140.0;0.2443746409407293;0.19265935706086085;0.03723771592369443;142.0;0.24291073126335874;0.15237990664536116;0.02329548493237021;145.0;0.21747917038514575;0.12053371947615102;0.014575593123442561;149.0;0.19606742666021876;0.00930077797241965;8.676691402408975e-05;150.0;0.06181011075955429;0.08842541311815683;0.007844580320926872;153.0;0.17235584036647322;0.08354608837503488;0.007001804486696936;154.0;0.16916974606468133;0.08201379243068557;0.006748108784336751;155.0;0.1693458804465288;0.08068408039328111;0.0065307298586108065;151.0;0.16879528325942078;0.08096174287875804;0.0065754999078162105;150.0;0.16982858026932465;0.08243372199451565;0.00681705892291979;149.0;0.17170193132435488;0.08438808843553368;0.0071443162698899216;152.0;0.17294082746889908;0.09150709932690933;0.008400777462998372;161.0;0.17134068439365238;0.19375752087518733;0.03766123363595762;153.0;0.2720403061214377;0.18732527559882992;0.03520510156526795;150.0;0.26478416065469035;0.1820282768976984;0.03323754501646202;152.0;0.2563014532317608;0.2317357392885222;0.05386275376866792;150.0;0.28062043270254267;0.23950971620023628;0.057519530477231684;159.0;0.29285631060394607;0.18692377488298342;0.03504487563069659;166.0;0.2601313754806079;0.1553349802793214;0.024200084911851275;161.0;0.2354875272192024;0.14248365035819796;0.0203671508224741;156.0;0.23520039885306224;0.12719381434264646;0.016225183822215373;156.0;0.2118748098250999;0.12224418727186975;0.014985595598622576;158.0;0.20780325759820675;0.11993324430338449;0.014429137958867098;156.0;0.20541041347878825;0.1222122896450176;0.014983802229366483;155.0;0.2052541117993346;0.1305515358367494;0.01709741577384431;151.0;0.20799155583268436;0.1257641940801546;0.015867466796108252;150.0;0.2057770314894165;0.12231789505765406;0.015006248951983754;146.0;0.20704375094667848;0.1363501650292631;0.018646852923977688;160.0;0.2179829888932755
0.15654309363651156;0.024585639601775386;151.0;0.23950365537706197;12.0;0.14256931431351658;0.020387980272251794;147.0;0.22165990347252268;0.15855758582830934;0.025115628323100977;139.0;0.20378821789164772;0.1518452606149557;0.02309496576884459;142.0;0.22426199504551608;0.15857075514931582;0.025195094585377626;140.0;0.22711042026201278;0.12711572001835775;0.016194488860602308;148.0;0.2045786052932309;0.10147008832280609;0.010315528565922718;147.0;0.18562381960332613;0.008946167522004889;8.020142800569481e-05;151.0;0.06395079641571702;0.07582675292370863;0.005765190136640602;153.0;0.1653800848002264;0.07255777325967745;0.005278196360721069;153.0;0.16373464449375058;0.07157968211308395;0.005137224136075511;152.0;0.16402137254928817;0.0708463281792997;0.005033129443411738;149.0;0.16377512011103953;0.07109384829717967;0.00506835447208997;150.0;0.1645351808421967;0.07278453034776669;0.005312052837761438;150.0;0.1665297198382668;0.07403287487032831;0.005494517345502408;150.0;0.16793751240167296;0.07772679139519406;0.006057797213374888;155.0;0.16408852864226142;0.1885968533537018;0.035685576213358244;160.0;0.2594166343297969;0.19157426539910438;0.03682123193669199;157.0;0.2546976353319648;0.1769101973271668;0.031399231048896525;152.0;0.24120849831436322;0.20165801744758433;0.04079662641850474;148.0;0.2565759910487467;0.21232068078088015;0.04522633456549459;155.0;0.26982144670429115;0.17550434309112645;0.030900003667885347;160.0;0.2444794319089147;0.14861917254090473;0.0221598203117316;161.0;0.2238575836086864;0.1457681522501016;0.021316890108650385;161.0;0.22379104015142898;0.12179965842935174;0.014884032717447582;154.0;0.2016489018183874;0.11629713877875066;0.013569582799415909;156.0;0.19758232759856478;0.1150831028683871;0.013287797558816634;153.0;0.19569618135358974;0.11858907921997336;0.014109679511934509;149.0;0.19610889239023743;0.12706601336402945;0.016198970925710886;149.0;0.1994508925840508;0.12459490337988592;0.015574703423211012;150.0;0.19912309513771886;0.12170095632153102;0.014859711642869677;149.0;0.19849966551246165;0.13119141639673765;0.017267351439793414;157.0;0.2089660471000468
0.16987494116065766;0.02893299064015958;153.0;0.24353872096765614;12.0;0.16071307832859533;0.025900723978908288;143.0;0.22428157464966733;0.1583405847043065;0.02512394494406922;145.0;0.20917944807544595;0.19323167633323035;0.03744347580547165;151.0;0.23133868408342886;0.19280948906985912;0.03728246278275815;144.0;0.2322011006670807;0.15750841779640987;0.024880094372275653;142.0;0.21048505282071475;0.12906096810757373;0.01670747181427155;143.0;0.19271861217348876;0.008336567706172006;6.969700254130508e-05;159.0;0.06615842068232543;0.09632825861455019;0.00930810715669603;157.0;0.17294212129176798;0.09120016455330181;0.008343256136034467;160.0;0.1714718243679885;0.08940034951458782;0.0080183304860235;160.0;0.17116880482740834;0.08851971682908275;0.007860760784677536;159.0;0.1714532224014583;0.08841923161816233;0.007842803733868512;160.0;0.17269495307166174;0.08920494402398137;0.007982871167948158;160.0;0.17401492940559124;0.08931171884533984;0.008002126035946567;155.0;0.17544380505820573;0.10059480448029418;0.010150364864073875;152.0;0.17226207767657623;0.17467206864904533;0.030609973677317645;165.0;0.24449396457494252;0.18072381940824953;0.032760366310939946;153.0;0.23928025193953315;0.17166698887896908;0.029549488127254726;150.0;0.2295316190150857;0.20244803059312383;0.041102099459678625;144.0;0.2530564035090004;0.20781443820910828;0.043293630210111504;154.0;0.2645808025335409;0.16588718178582565;0.027571479811726248;156.0;0.23341993125189228;0.1403210949582603;0.01972722947934069;165.0;0.21438250293644368;0.13453551228842164;0.018156352889119053;162.0;0.214656320110383;0.11486587910930089;0.013221354731301501;163.0;0.19493328658240222;0.1093131093618736;0.01197436681914203;163.0;0.1921151718178399;0.1081813859201574;0.011725894057589321;158.0;0.1918882444757783;0.1109775865286518;0.012345873406721124;149.0;0.1940454402110484;0.1146132322032998;0.013167964910034633;154.0;0.19636497147541818;0.11345397198170326;0.012907273667922835;153.0;0.1953695598166259;0.11373588359751964;0.012973390765302765;154.0;0.19540886509119074;0.12367343294573142;0.015324879351225805;161.0;0.19937643033744082
