rms_s1_ch1;var_s1_ch1;zcr_s1_ch1;wl_s1_ch1;rotule;rms_s1_ch2;var_s1_ch2;zcr_s1_ch2;wl_s1_ch2;rms_s1_ch3;var_s1_ch3;zcr_s1_ch3;wl_s1_ch3;rms_s1_ch4;var_s1_ch4;zcr_s1_ch4;wl_s1_ch4;rms_s1_ch5;var_s1_ch5;zcr_s1_ch5;wl_s1_ch5;rms_s1_ch6;var_s1_ch6;zcr_s1_ch6;wl_s1_ch6;rms_s1_ch7;var_s1_ch7;zcr_s1_ch7;wl_s1_ch7;rms_s1_ch8;var_s1_ch8;zcr_s1_ch8;wl_s1_ch8;rms_s1_ch9;var_s1_ch9;zcr_s1_ch9;wl_s1_ch9;rms_s1_ch10;var_s1_ch10;zcr_s1_ch10;wl_s1_ch10;rms_s1_ch11;var_s1_ch11;zcr_s1_ch11;wl_s1_ch11;rms_s1_ch12;var_s1_ch12;zcr_s1_ch12;wl_s1_ch12;rms_s1_ch13;var_s1_ch13;zcr_s1_ch13;wl_s1_ch13;rms_s1_ch14;var_s1_ch14;zcr_s1_ch14;wl_s1_ch14;rms_s1_ch15;var_s1_ch15;zcr_s1_ch15;wl_s1_ch15;rms_s1_ch16;var_s1_ch16;zcr_s1_ch16;wl_s1_ch16;rms_s2_ch1;var_s2_ch1;zcr_s2_ch1;wl_s2_ch1;rms_s2_ch2;var_s2_ch2;zcr_s2_ch2;wl_s2_ch2;rms_s2_ch3;var_s2_ch3;zcr_s2_ch3;wl_s2_ch3;rms_s2_ch4;var_s2_ch4;zcr_s2_ch4;wl_s2_ch4;rms_s2_ch5;var_s2_ch5;zcr_s2_ch5;wl_s2_ch5;rms_s2_ch6;var_s2_ch6;zcr_s2_ch6;wl_s2_ch6;rms_s2_ch7;var_s2_ch7;zcr_s2_ch7;wl_s2_ch7;rms_s2_ch8;var_s2_ch8;zcr_s2_ch8;wl_s2_ch8;rms_s2_ch9;var_s2_ch9;zcr_s2_ch9;wl_s2_ch9;rms_s2_ch10;var_s2_ch10;zcr_s2_ch10;wl_s2_ch10;rms_s2_ch11;var_s2_ch11;zcr_s2_ch11;wl_s2_ch11;rms_s2_ch12;var_s2_ch12;zcr_s2_ch12;wl_s2_ch12;rms_s2_ch13;var_s2_ch13;zcr_s2_ch13;wl_s2_ch13;rms_s2_ch14;var_s2_ch14;zcr_s2_ch14;wl_s2_ch14;rms_s2_ch15;var_s2_ch15;zcr_s2_ch15;wl_s2_ch15;rms_s2_ch16;var_s2_ch16;zcr_s2_ch16;wl_s2_ch16
0.10303464087316995;0.010649956030141537;154.0;0.17627304324016763;12.0;0.10148661643349205;0.010331833501243812;154.0;0.1733733035163693;0.10128321752811541;0.010291218948842317;152.0;0.17067024596127855;0.10038207659288464;0.010109127227396555;155.0;0.16866436982523994;0.0992301026768881;0.009877978262659657;157.0;0.16715802783783595;0.09821287507452178;0.009676273929120564;160.0;0.16628838980160252;0.0972231272867485;0.009482139536171169;160.0;0.16533992621390525;0.1068439210907643;0.01144927935158313;147.0;0.17969043919196465;0.10547768895460972;0.011158065664517694;146.0;0.16958450503723307;0.10171728441898986;0.010378488661996296;153.0;0.17130195413015714;0.10029311636423426;0.010089892090349106;158.0;0.17241726909213148;0.09975799256045305;0.009981980001195087;153.0;0.1732794364381295;0.1002597289027513;0.010081953643758773;153.0;0.17587642990144503;0.1003306911945183;0.010097998520527687;152.0;0.17705320433145214;0.1008162628490667;0.010195462694263923;149.0;0.1770057044694142;0.11042321555171221;0.012228325342649197;154.0;0.16806378544804132;0.07574593759551673;0.005755699676728001;145.0;0.15372163682405257;0.0761163081340948;0.005812465905229736;146.0;0.15239072887893051;0.07636653112978121;0.005850895786532705;146.0;0.1516476909404389;0.07518085163510371;0.005670631757935599;149.0;0.15043363259270187;0.07412755495955096;0.005512833000143418;149.0;0.14934088390925157;0.07402915021208528;0.005498168514897889;154.0;0.1484451897051566;0.07388654182825315;0.005476899566862923;158.0;0.1476210889245986;0.07606036496786023;0.005803366954095157;145.0;0.15576780820153646;0.06843760363102577;0.00469898705433627;161.0;0.14587598995358586;0.06710872680576713;0.00451830892644683;162.0;0.14614314010162222;0.0661489095699408;0.004389914781083601;157.0;0.1469024321770129;0.06593103544041837;0.004360969068849768;156.0;0.14706125381149499;0.06656285132934057;0.004444867436088718;151.0;0.15047946300551474;0.06978668729181439;0.0048856791569613246;147.0;0.1566139461097045;0.07207784596870759;0.005211469752471149;146.0;0.15784679788435352;0.07078304360373482;0.005026541911954364;167.0;0.1422158981077665
0.10232379317346717;0.01050275431269426;139.0;0.18364900259315903;12.0;0.09927963057506152;0.009885645637328706;141.0;0.18008621573014374;0.09751031634583068;0.009538822354684435;145.0;0.17776787742479205;0.095945910060236;0.009235817959631652;147.0;0.17604668229193338;0.0944301113162698;0.008946291665474724;151.0;0.1747297296297825;0.09331638970170955;0.008736395112540473;153.0;0.17377893566932406;0.09266333478099834;0.008614036815113236;154.0;0.1731209392950953;0.11132014172348936;0.012425184523190311;136.0;0.19109234006799924;0.10381452761803142;0.010812745253840362;154.0;0.1809976934678195;0.09849041146150753;0.00973154015430709;160.0;0.17972439938478263;0.09768852925814957;0.009573554021895053;158.0;0.18099792199455825;0.0989331953102319;0.00981973222996358;152.0;0.18323916906638277;0.10143238391405296;0.010321363232464067;146.0;0.18745347105167187;0.10389540015641593;0.010827257675964102;147.0;0.19137102868262182;0.10481606593962332;0.01101807377925653;142.0;0.19131454336693468;0.10707719440038989;0.011503034233513407;161.0;0.17983571244311675;0.0771233375714143;0.005966898298170056;151.0;0.15763792674798668;0.07655154770798554;0.005879126240861618;147.0;0.15456225782201188;0.07687103131304521;0.005928472259706376;147.0;0.15278210669994596;0.07662849166126064;0.005891118787019849;153.0;0.151561395456535;0.07557782941636537;0.005730538432493437;156.0;0.1499736462789303;0.07509576200366844;0.005657131294579552;155.0;0.14929302799294536;0.07464766714375083;0.005589231441007461;158.0;0.14904532389043657;0.07734780943409136;0.006001525170941626;150.0;0.16027408530842696;0.07236415755105532;0.005252418322488839;161.0;0.14814290618272966;0.0708423758857477;0.005033679845308803;164.0;0.14837843005617968;0.07068330973978283;0.0050103128024291295;163.0;0.149328703588897;0.07157923426999488;0.0051367507868363355;164.0;0.15060667538849795;0.07508251106582954;0.0056498311631038535;150.0;0.15546833783773703;0.08283600019611295;0.006877408670845809;147.0;0.1655662122710798;0.08493124943406595;0.007233555490358425;144.0;0.16962606406028097;0.0755088919221121;0.005719084991421796;159.0;0.14681363079345555
0.09531300425534395;0.009098740377854367;149.0;0.18237390739421244;12.0;0.0929604404686705;0.008658544410833639;150.0;0.1795079680656318;0.08999052607400417;0.008115647322079507;153.0;0.17733474330032797;0.08692559278862441;0.007571098841351894;158.0;0.17576519916673153;0.08495788554122419;0.007233052382075941;157.0;0.17436236207547706;0.08315164881868346;0.006929513422682278;156.0;0.17329128366483898;0.08120711893317224;0.006609165840803304;155.0;0.1719717280736425;0.10478615085949111;0.010996111467228353;155.0;0.18890209384986925;0.08552557916981389;0.007318310077050892;156.0;0.17534395360912985;0.08269620375685058;0.006843018941517942;158.0;0.17339567730829564;0.08354034688759412;0.006983796759518914;156.0;0.17443698682609374;0.08495618477868049;0.007220942820866834;159.0;0.1758631590773665;0.08889119348808236;0.007912826170305929;161.0;0.17990132383508872;0.09475194533876147;0.008995715707934776;164.0;0.18532665973858495;0.09904815957750088;0.009829909559013594;162.0;0.18787221508091484;0.08566218659235596;0.00734036103484117;164.0;0.17319892603204193;0.11520865928900975;0.01331611395499764;147.0;0.18082673119499776;0.11046842737748225;0.012243058432248283;143.0;0.17651780731136685;0.10830761494498777;0.01176842396481087;144.0;0.17511955294671577;0.10595811619337245;0.01126300846298121;152.0;0.17345214923567612;0.10395211038636579;0.010840389260669023;154.0;0.17224968576965344;0.10248862410997693;0.010536940411258739;151.0;0.17166469774184248;0.10179446672906259;0.010395127986282565;151.0;0.17173280539856953;0.1200561880805875;0.014456226772437526;147.0;0.18599343327896686;0.1076633052921107;0.011628864892372888;137.0;0.1715708247100487;0.10878006768581676;0.011871763493048394;141.0;0.17299792243457762;0.10980102899345472;0.012095605088236478;144.0;0.17336436334410713;0.11272243519300783;0.012747618602507203;146.0;0.17583614004577636;0.11725716666392293;0.013794144861753854;138.0;0.1803776166184981;0.1261868118015923;0.01597503091386142;140.0;0.19124828689038226;0.12990457464652852;0.01693035574238038;139.0;0.19656223596913902;0.10996779033852705;0.012131594428130327;130.0;0.17189774581081965
0.11574468260566215;0.013440593794870833;153.0;0.1919361575687454;12.0;0.10915090677493312;0.011950582199439648;157.0;0.18694521264335948;0.10429179191269006;0.010909216238859267;161.0;0.1837090332484048;0.09882343082725348;0.009792291673021711;164.0;0.1804259792141967;0.0949616081754819;0.00904224941350758;157.0;0.17754219766627272;0.09172912487030635;0.008435781970599803;153.0;0.17570433556514453;0.08868572646935857;0.007886613929029505;147.0;0.1738226573226523;0.1429295461930895;0.020495711047580745;162.0;0.20606684273095613;0.09444208404399836;0.008948236675386375;141.0;0.1776914527030168;0.09112495906820876;0.008330864259970903;149.0;0.17764847512737447;0.09284475081944601;0.008648421442865666;151.0;0.1797787089717444;0.09658765880772258;0.00935972601809436;156.0;0.18209934113014745;0.10584589523592444;0.011240029781077836;162.0;0.18805316720274048;0.11526046374556125;0.01332848769269981;165.0;0.19420710491436807;0.12356440296213439;0.015318154074808516;160.0;0.19898623850608022;0.09530770008671426;0.00911198825396458;139.0;0.175896669040236;0.11697791085622121;0.013704662354195155;162.0;0.1880119240492025;0.11237160898831501;0.01264920473046664;157.0;0.18497506697374858;0.11045217845330386;0.012221147226321824;158.0;0.18438245018270957;0.10877750615970497;0.011855410412427499;160.0;0.1837519812406304;0.1075353991427648;0.011587143671267003;160.0;0.18313298070226322;0.10573849009793511;0.011206885975041542;161.0;0.1819993983655804;0.10567126908910668;0.011193812978892725;160.0;0.1821621511709457;0.12285916297962973;0.015109976446465615;156.0;0.19490808535517914;0.11393087718016877;0.01299414551506168;152.0;0.18125510942149828;0.11470750097134716;0.013177753139372292;152.0;0.18307371127369423;0.11464779291248291;0.013157705745526342;156.0;0.18322648726215274;0.11616987956313292;0.013501556712467857;152.0;0.18437651217068113;0.1187551452281575;0.014094824488036518;156.0;0.1875509620280271;0.12490694370726481;0.015595354451072184;154.0;0.19548220748759995;0.13060251277204474;0.01706452107115624;152.0;0.2020871607458702;0.11520058660765847;0.013285542434976063;149.0;0.17986476585879546
0.11083367361377276;0.012322238257565777;158.0;0.18606751556874354;12.0;0.10526822485750245;0.01111667559337826;161.0;0.1814786067312304;0.10144836874979303;0.010325091492014214;163.0;0.17867129936486817;0.0960254732537148;0.009250995764077376;165.0;0.17523146120391667;0.0915852526396527;0.008415230574823171;159.0;0.17240970580605652;0.08773032008313292;0.007721724104632268;159.0;0.17035698477361422;0.08497188169204242;0.007243805017926005;154.0;0.16811466841528538;0.1408030219843292;0.01989013746068311;159.0;0.20263967979277392;0.0918636983592138;0.008463627648550416;145.0;0.1754606942909548;0.08686346311923719;0.00756840098292111;156.0;0.17551870233586606;0.08854100642677701;0.007863572841878908;160.0;0.17765071500842528;0.0919379264404765;0.00847900045421664;163.0;0.18063055782469278;0.10049019107065497;0.01013121039365401;166.0;0.1866049080217812;0.10851481074141464;0.011814014855314865;165.0;0.19211942407762359;0.1164796550931196;0.013611747281837016;154.0;0.19607060582318017;0.09580224048540778;0.009206244935579882;143.0;0.17495210141778905;0.08168649691270245;0.006693883455291581;175.0;0.16814668825137222;0.07929352671388425;0.006307535384305469;169.0;0.16483473747477065;0.07910598451804285;0.006278018443824523;172.0;0.16365030766145142;0.07902057714868035;0.006264609061064011;167.0;0.1629694982440496;0.07907799401777313;0.006273779102942265;165.0;0.16229541314192217;0.07820696704120132;0.006135976236598599;163.0;0.16122073545497592;0.0785362912945142;0.006187677290004201;166.0;0.16074841653451324;0.08746858101721244;0.007675775931497149;164.0;0.1757379613547398;0.07951222629738627;0.0063428696677581;170.0;0.15988618244750194;0.07806542496185226;0.006114147689294846;167.0;0.1615227626764875;0.07683449831084328;0.00592258859194419;171.0;0.16276658300063568;0.07644211043493716;0.00586221702462065;171.0;0.16438912295692995;0.07855653430847695;0.006189868863961354;163.0;0.1690034743739894;0.08570186245712526;0.007365929338292585;161.0;0.17810401498350323;0.09363356567651329;0.008793937236519587;161.0;0.18346210251629075;0.08248332220042245;0.006825681208959644;169.0;0.15951976904578605
0.081293432920918;0.006624392857752903;150.0;0.16726691613452424;12.0;0.08082472712164114;0.006547075289805203;148.0;0.163718536833702;0.08129530073661408;0.006621367096264169;156.0;0.16239034822740736;0.07881950163486641;0.006222567631000151;158.0;0.15981474794230976;0.07655547648445599;0.005869423681931738;153.0;0.15799209399903272;0.0737091611199839;0.005441203461134189;156.0;0.15615740404685577;0.07150807090174381;0.005120765689072338;155.0;0.15387528415366689;0.09943324620692337;0.009913211246224489;141.0;0.17808528313660915;0.0740485781625941;0.005493634599443615;144.0;0.15944843953080245;0.07345530625593764;0.00540491670594146;151.0;0.1609205127169476;0.07529883449795854;0.005678888790997536;152.0;0.16267388496141544;0.07632410976395737;0.0058369178588341605;154.0;0.16449531439699452;0.08034185293883903;0.006468201105016648;151.0;0.16851137871025315;0.08572148210359609;0.0073637423199538095;146.0;0.1730101807259102;0.09008668766569392;0.008129415420657081;136.0;0.17512625665940473;0.07732818322408841;0.005991387724913374;145.0;0.15833220340671267;0.06290058989548197;0.003969464258847009;170.0;0.1511007523009467;0.05887978168913414;0.0034781025096024044;167.0;0.14721407469201686;0.05746000118697818;0.003312218784040923;169.0;0.14573747745900426;0.055940392802720625;0.0031391019672352477;166.0;0.14468639493741034;0.055057669293227855;0.0030409884065173616;168.0;0.14357164169009085;0.05445858280137499;0.0029753978206192334;161.0;0.1429969802158362;0.054683130333937346;0.002999949248479302;163.0;0.14286150607988568;0.06914069492026345;0.004795826069855492;164.0;0.15594279672049666;0.05695694951565052;0.003254431677415652;168.0;0.14518191886547052;0.056296780292050035;0.003179011430606901;163.0;0.14567204776832166;0.05649292125803633;0.003201725306061055;163.0;0.14635850181456042;0.057788280847895446;0.003349487099697442;167.0;0.14821795435366703;0.06168602010635898;0.0038152976574924546;157.0;0.15339245078294952;0.07147888578945179;0.005122157975338439;161.0;0.16355638741656217;0.07701047747542875;0.005946419811232466;158.0;0.16631030621748755;0.06049141497525252;0.0036710970528375454;165.0;0.14355505917055045
0.0753927973110439;0.005698467814706574;141.0;0.16387186906984708;12.0;0.06892371687232882;0.004761285479132948;140.0;0.1568037416341523;0.06583989982030226;0.004344122450376728;148.0;0.15398066380937475;0.06287558131769444;0.0039610969849200135;149.0;0.1514009684919627;0.061809800425391165;0.0038294594315475498;151.0;0.1503458898783565;0.060460129926965735;0.003663886686661885;152.0;0.14920947455630879;0.058635297054360214;0.003445804538335492;150.0;0.14800217618207798;0.10016845080499095;0.010061439129084146;134.0;0.176709492507688;0.06471551320749232;0.004200930599166827;141.0;0.15514161955753983;0.06612583956070682;0.004384884642166742;148.0;0.1563323806733561;0.06907249428804248;0.004783574158231554;147.0;0.15813973495768255;0.07178544716318813;0.00516693007199695;140.0;0.15900639059292807;0.07849662757224721;0.006176300899690588;136.0;0.16293916594833444;0.08516498966522369;0.007268764231965828;136.0;0.1682146136113447;0.09059989903931383;0.008222495321818036;132.0;0.17203417968827983;0.06251953068185;0.003920896457029349;148.0;0.15225422880319398;0.06163633290743451;0.0038109645133980142;159.0;0.14987616719488006;0.05789955276842291;0.00336303644231277;159.0;0.14625945415687555;0.05631864205043851;0.0031816929797400884;157.0;0.1442274124265125;0.05500279354960298;0.0030348038265949726;156.0;0.14351348471545797;0.05456823359605225;0.002986866808575995;160.0;0.14264442120142753;0.05334742101129594;0.0028547600711134164;158.0;0.14147455187196786;0.05348338058682029;0.0028691096061009293;156.0;0.14131897608870728;0.06365908561915702;0.004063579709235976;163.0;0.15359204697550233;0.04763926872856989;0.0022770137537961254;150.0;0.14062454552571005;0.04845040248061545;0.0023551358005418233;151.0;0.1414560465820251;0.04974765955328531;0.002482872044516856;152.0;0.14096295764740388;0.05170858273926421;0.0026818568218599285;155.0;0.14186611166456184;0.05523522574379922;0.0030595900870723012;156.0;0.14541090212288482;0.06355879964564162;0.004050734738494652;163.0;0.1553919892081986;0.06912467045809258;0.004789983578034918;157.0;0.16103311538851414;0.04885904139497346;0.00239514132991206;155.0;0.14018618187185208
0.07875559119905758;0.006207203396733838;154.0;0.1643966113562089;12.0;0.07397716877101916;0.005481966063516117;156.0;0.15836213239751076;0.07064831478129074;0.005000187066378483;160.0;0.1538555093920412;0.06772721055743126;0.004597791478065557;156.0;0.15214217485150788;0.06568220198096318;0.0043246384382314255;158.0;0.1518672448174039;0.0640868176660594;0.004118384791263587;158.0;0.1509616818608359;0.06261523454488464;0.003931274588011748;157.0;0.15097219411609686;0.0957894491614385;0.009186525262569353;154.0;0.1754591254136645;0.06214997828121538;0.0038672872880887864;151.0;0.15792719629102825;0.06379223324499608;0.0040739610860685655;155.0;0.15930019310228832;0.06602284350653946;0.004362701368798434;159.0;0.1598474534579239;0.06895356323244803;0.0047567861682284215;150.0;0.16060322418013953;0.07470489584784969;0.005586676136864351;152.0;0.16319368578088472;0.0797384953419855;0.006360211084771834;156.0;0.16588299711360452;0.08427833521839209;0.007106453922558549;160.0;0.16798020357477672;0.060844534974880314;0.003706490076612449;159.0;0.1552031548141097;0.06873450289990185;0.004739873103365324;154.0;0.15227080759227712;0.06415664583803335;0.00412948825274966;160.0;0.14755770935015602;0.06213121251576389;0.0038726978974285794;158.0;0.14480784640957978;0.06087623063815052;0.0037179068839353836;157.0;0.1432772137314534;0.060288416176031576;0.00364657854203377;157.0;0.14244170426993225;0.059489232498292605;0.0035505405854596695;162.0;0.1409590989907844;0.05953981364134627;0.003556616730552548;160.0;0.1404324577495944;0.07257075323257432;0.005283678028196594;159.0;0.1553942958249355;0.056257838123934506;0.0031747802604672644;150.0;0.14208977526797206;0.05724720668802001;0.0032870916228025433;154.0;0.14448287556917905;0.0575327404982365;0.0033202112322755334;154.0;0.1444177511016003;0.058169650046588264;0.0033943776070105955;158.0;0.14572680303061042;0.06074081779522689;0.003701144185880966;158.0;0.1492951074804494;0.06786671304531437;0.004620921763829865;154.0;0.15792926470058877;0.07564257150861531;0.005740489712302995;153.0;0.1634891197992366;0.05296981223553843;0.002815003889083437;159.0;0.14070685822646892
0.09344892426099101;0.008759864523392476;142.0;0.17433362408362657;12.0;0.08578390621373264;0.007380444187715656;145.0;0.1684038125079082;0.08094102826073286;0.00657190904098895;151.0;0.16501401030987833;0.07721873233479877;0.005981480084436751;147.0;0.1632453029394566;0.0737819977321226;0.005461457605590991;146.0;0.161550593067637;0.07055341982321983;0.004993891168616276;143.0;0.15945639096899022;0.06762045803141133;0.004587420442206706;146.0;0.15839457246593186;0.11018088978179014;0.012177027744128618;156.0;0.1858088852125862;0.06612187921469563;0.004386186935901095;146.0;0.16386445118436038;0.07068705885491541;0.005013065214394974;144.0;0.16654307616556677;0.07678750707783824;0.0059156087956630885;148.0;0.1686223999898698;0.08216027960327497;0.006772467341893768;145.0;0.1705688401339117;0.09020596721909512;0.008163663038454927;151.0;0.17449715631227322;0.0967603385784517;0.00939317058800888;149.0;0.17721242998416736;0.10313958287887719;0.010672597424295206;151.0;0.1787342736722062;0.06726557077926942;0.0045392425156583855;151.0;0.1640572641362623;0.06671441452906803;0.004465405545670331;155.0;0.1563056834711506;0.06203840168641201;0.003860857239719696;156.0;0.15113374562102314;0.060435970000202316;0.003663424887895158;156.0;0.1496245186226921;0.05942449218865432;0.0035422576013863327;156.0;0.14805482763392752;0.058982939696409734;0.00349008003952983;153.0;0.14723400348142118;0.05884015509217835;0.003473082211448653;157.0;0.14644742299335375;0.05915829710264008;0.0035106864295572117;156.0;0.14574226452610237;0.07433162933049385;0.00554257150750004;156.0;0.1598845491202725;0.06462493054327183;0.00418873118535857;152.0;0.15316509595343644;0.0647049689231238;0.004199821507378823;159.0;0.15593493472100123;0.06446010218487012;0.004168313972096762;156.0;0.15625969991108715;0.06530442761554976;0.004278624214789986;160.0;0.15755057322003796;0.06892323204514507;0.004766014337008813;161.0;0.16275385641751847;0.07742726262189926;0.006014676462030439;158.0;0.17163970209467347;0.08127087917171143;0.00662637361492459;152.0;0.1746877169753731;0.0625613578131206;0.003924109663080017;145.0;0.1490119044411547
0.08740055418428669;0.007663300728310565;152.0;0.1529547447085529;12.0;0.07853823295250874;0.006188418784796128;144.0;0.1467415281573254;0.0734030571802377;0.005405811439715641;142.0;0.1450424078882999;0.06996535905405424;0.0049113489609565126;144.0;0.14384303392648126;0.0677438673174102;0.004603559788564493;144.0;0.14236208207532094;0.06542496538997405;0.004294036715814299;135.0;0.14097942940357536;0.06313105402026326;0.003997754242241231;140.0;0.14003209950379952;0.1007516959930252;0.010181933886148981;162.0;0.16107848271235775;0.06525784945173896;0.0042731301927019785;146.0;0.14425854544952577;0.06779585964429995;0.004611388353367107;146.0;0.14556782746253227;0.07335670443613823;0.005398873017126861;150.0;0.14781086406514668;0.0781345619319466;0.006124152357459671;149.0;0.1492262150023969;0.08470377144593819;0.007196494671654318;155.0;0.1523708745180739;0.0907559181607741;0.008261104839942862;155.0;0.1555063417953596;0.09723136312933753;0.00948136068346618;155.0;0.15905364511062384;0.06585546486639288;0.004352180723796753;148.0;0.14438287547858492;0.06453840675271286;0.004175580420523427;163.0;0.14209339641489785;0.06090643906889185;0.0037187514664101338;155.0;0.1378518841121568;0.05688526368006824;0.0032434176500121046;153.0;0.13654926883328114;0.05437338028457686;0.002964185541455032;148.0;0.1355969064223289;0.05224824068447204;0.0027366014206526472;144.0;0.1341806321240766;0.05051373810898737;0.0025568280362177863;149.0;0.13322665507136974;0.049784621875168765;0.0024816192309855944;150.0;0.13220749923565248;0.06682249650324258;0.0044763141987720625;161.0;0.14444758044641098;0.054902791121920765;0.0030235315201224827;146.0;0.13749065165366595;0.054150131026303706;0.0029408800637325417;150.0;0.13909010700939498;0.054718563228845725;0.0030022881185733687;149.0;0.1398310126272928;0.05646767851724766;0.003197787152140895;156.0;0.14129277889232786;0.06037568078522664;0.0036563324991535574;158.0;0.14722722557855458;0.06954459063990207;0.004851687470577505;166.0;0.1583420558580232;0.07337742072482958;0.0053999456673298404;162.0;0.16082800574611714;0.05855137566134679;0.003433935144915868;144.0;0.13719665455380745
0.07830161840288492;0.006150916460842171;148.0;0.1368594952129416;12.0;0.07765306258858283;0.006049381171079949;143.0;0.1344542868949024;0.07769842351711868;0.006056439887171009;141.0;0.1341748296762498;0.07433420475760352;0.005543602970483845;144.0;0.1332852829846505;0.07229450485039896;0.005243024387457414;145.0;0.1329690388161234;0.07123070998627902;0.00509037762843849;137.0;0.13217901337043628;0.0710676059378575;0.0050669245415700115;142.0;0.1323125534899956;0.07485571265824316;0.005621637566637626;152.0;0.1375042805487095;0.09305180936163757;0.008686034779968868;149.0;0.1393881602455217;0.07819896522002781;0.006134427466498482;149.0;0.13546460121134848;0.07374829279737044;0.005455820614361781;145.0;0.13245801366606783;0.0727304166782049;0.005306344957721351;146.0;0.1317756236613427;0.07361386784972479;0.005436457306846914;148.0;0.13307564305049027;0.0772556220682874;0.005987486356333973;155.0;0.13515119545146942;0.07886236101960742;0.006239283398393923;157.0;0.1372564681685586;0.10157896694209005;0.010350223736247095;151.0;0.13602187449822692;0.07663929694848358;0.005890443578436299;156.0;0.1388449571985838;0.07462461069877825;0.005585477338389227;154.0;0.13664503773256964;0.07205717272210045;0.005208459728505597;153.0;0.13597576783873033;0.0694054169567313;0.004832344322609383;149.0;0.13488066707452762;0.06734727034184679;0.004549747385918218;147.0;0.13363993916869138;0.06551818432197767;0.004305739962925544;152.0;0.13230739833198976;0.0647918059974974;0.004210887639213086;150.0;0.13219482392291426;0.07504951869907563;0.005649644055604129;154.0;0.14073355325591083;0.06337936861479306;0.004026619957800252;150.0;0.12971695670401345;0.061859056571124525;0.0038371736376197362;145.0;0.13011201882931284;0.06211725703243069;0.0038698024152608347;141.0;0.1304484415919497;0.06394809541338797;0.004100967251031278;145.0;0.13150880939619164;0.06739792407050987;0.0045557244644525464;152.0;0.13574061979456367;0.07314686079573574;0.005366511538978857;153.0;0.14425513130483597;0.07532552493787716;0.005691683665934521;149.0;0.14757655843665182;0.0701354178533483;0.004928592113604345;157.0;0.13227753861882488
0.08809187252062917;0.007783023499242676;139.0;0.15761583679298796;12.0;0.08851069927537122;0.007858077903582063;138.0;0.15512494800648843;0.08832379851246071;0.007825108823991879;139.0;0.1534907667737189;0.08406143002816592;0.007088483179888187;139.0;0.15158497314768887;0.08111900498886969;0.006601387741890795;138.0;0.15073189382993615;0.07845680680456898;0.006174555115463111;137.0;0.14888806456799455;0.07752686705231068;0.006029297900441862;135.0;0.14819046642717965;0.08987415478573556;0.008101806195738546;145.0;0.1614466239876899;0.10045094459928429;0.010119567142160835;143.0;0.15647523047513137;0.08754064433875353;0.0076857898763002;140.0;0.15497465712317285;0.08447715886602944;0.007157064482493054;135.0;0.15264598820775618;0.08508581982720913;0.007262084976406617;137.0;0.1531435109289314;0.08901525868953727;0.007948686041954839;141.0;0.15653492823203724;0.09251647576631758;0.00858685546093509;149.0;0.15978592177096732;0.09329391424851471;0.008730929783008146;152.0;0.16058894573887242;0.10887058300294498;0.011890409773437107;146.0;0.15384533399877048;0.08220742865756489;0.006776130400494136;149.0;0.16162095733292783;0.07838480946799778;0.006161820611126078;156.0;0.15710318241419197;0.07726316099249458;0.005988111777052355;156.0;0.15483179028624602;0.07576433029277063;0.005758113639946255;158.0;0.1529740484073175;0.07452386736666443;0.005571179317182283;159.0;0.15168518514122387;0.07376123633409437;0.005457608960014152;162.0;0.15053903727383888;0.07345643603122852;0.005411503245481683;155.0;0.15071122342374887;0.08380437045034005;0.007040760484056466;150.0;0.16480537014628469;0.07439645209355152;0.005552749260042347;156.0;0.1514740084424048;0.0735007018673786;0.0054194544695484554;154.0;0.15204987408360446;0.07305617456501726;0.005354259185464564;146.0;0.15221564901085083;0.07467115523224445;0.005593249719196495;143.0;0.15392812037197037;0.08012283084521744;0.006440042104255464;148.0;0.15904774118527848;0.0895555232314306;0.008046018276490412;142.0;0.16801092660527273;0.09221398885038397;0.00853049102137468;141.0;0.17252171159269836;0.07801211898798868;0.006104273318808979;155.0;0.15240820818452552
0.10576746313371559;0.011223346376269868;153.0;0.18110220320961348;12.0;0.10297632566118976;0.010638810606102979;147.0;0.17593539749923445;0.1013591310577478;0.010306859633773388;146.0;0.17336312378316895;0.09728861034723524;0.009495388469326564;145.0;0.17038474013491883;0.09428894922045364;0.008917699018727939;148.0;0.16855735039831796;0.09007642633221882;0.008138478104246265;148.0;0.1661814953058554;0.08668772199118913;0.007538583599045872;146.0;0.16417290977098087;0.1211451409079498;0.014724193458125041;161.0;0.18977986772606734;0.08612147293446466;0.007441105276581613;144.0;0.16749596580026113;0.08458345503224687;0.007177249336644907;145.0;0.16898645728497583;0.08622161287413778;0.007457519501193207;147.0;0.16958293314345974;0.09019474000434533;0.00815962544814543;143.0;0.17258227384388145;0.09926086090825369;0.009883991031650103;149.0;0.1787957176993895;0.10807378880637822;0.01171687641991264;156.0;0.18612788345297526;0.11615069844672828;0.01353459994438259;161.0;0.19174906829167132;0.08695102923850911;0.007585192746249688;142.0;0.16586521749941696;0.08947554378775793;0.008024827557227153;148.0;0.17243931321892345;0.08413552811863063;0.007097733700030793;158.0;0.1668949476413277;0.08154927449950265;0.006668158535211138;159.0;0.16410233629679785;0.07998168558522571;0.0064165822858142235;159.0;0.16292763704002075;0.07899383158280929;0.006258653722513381;159.0;0.1617418180768886;0.078360566180349;0.006158255890306432;163.0;0.16115311260045403;0.0788040989851073;0.006228952200275245;160.0;0.16132586337938246;0.09163337914321594;0.008410669742334186;147.0;0.17646859475744123;0.07995272769953643;0.006406152123373832;159.0;0.16331268085790196;0.07911396693970976;0.0062739939699932865;158.0;0.16447369776935242;0.07961686294722596;0.006354288710750271;155.0;0.1657650668139146;0.08207970935257544;0.006753019325128381;149.0;0.1678707462559113;0.08885274706300866;0.007915682387463747;147.0;0.1737446330600042;0.10291872978853724;0.010620487115691586;146.0;0.18847989568494802;0.10836175410779597;0.011770849576653574;148.0;0.19186826901178727;0.07783660823703932;0.006071122522318862;154.0;0.16094438277916354
0.11749683071317521;0.013834447195110821;163.0;0.19904248610437378;12.0;0.11269895679533551;0.012733658407737006;161.0;0.19016080222620352;0.11282639284410953;0.012762939321088771;160.0;0.1882949721101614;0.11111969108199528;0.012377328016665298;162.0;0.1864331510759631;0.11037033914474459;0.01221046962668138;168.0;0.1852726393057974;0.10834525041650052;0.011765147210276137;170.0;0.18423513743649844;0.10569333105183651;0.011198931136925121;168.0;0.18267423773786706;0.1315504537802886;0.017325609705383133;172.0;0.20974184954161687;0.10334542275165035;0.010696817769755182;154.0;0.18566442818037332;0.09723591198883934;0.009474558507681793;155.0;0.18753133687333914;0.09728874368801647;0.00948750508232963;148.0;0.18947739065964994;0.1002201724851791;0.010067007820352115;145.0;0.19217895896850898;0.10830017096234765;0.011756440320601632;153.0;0.19829119394701575;0.11859747450584544;0.01409687787174754;158.0;0.20643285407084566;0.1278078001514974;0.016367347005347584;163.0;0.21313878316904553;0.10084192409804436;0.010175085819598827;154.0;0.18217708966292545;0.11971255003680299;0.014372215678513389;148.0;0.19655924441349645;0.11320686970273836;0.012845923846569874;156.0;0.19155160445962374;0.1102210152720895;0.012173860911020382;162.0;0.18993893481705743;0.10825030148303551;0.011732971096065622;160.0;0.1893552061560897;0.10685812473928728;0.011432798801157716;160.0;0.188677021250653;0.10530635916650502;0.011100609349863256;160.0;0.18798009283591693;0.10496028535081262;0.011019738222466536;162.0;0.1873434596647186;0.12783757010470215;0.016393422069861236;142.0;0.2047675361498327;0.10538740540575418;0.01110918229801251;161.0;0.18779180186293837;0.10592256178767463;0.011223191767600409;162.0;0.18912345249992027;0.10756314340337726;0.011580412015284062;159.0;0.19015571696514638;0.11260410300663692;0.012700339695406569;154.0;0.19302218105069768;0.12293527090256975;0.015147206978705634;153.0;0.1990781652636915;0.13947138321865607;0.019506808606831558;154.0;0.21422976162340837;0.14308379681303265;0.0205333779794642;150.0;0.2164035665915462;0.09944487881117953;0.009886399521413137;162.0;0.18154620384607142
0.11554493877218652;0.013393591273236171;166.0;0.1936202316407772;12.0;0.11179192212115655;0.012538242533655833;166.0;0.18548755591748178;0.11403019997382735;0.013045427299722934;169.0;0.18453876824833013;0.11551233584857878;0.013386707834510542;166.0;0.18353060934961066;0.1158810152811014;0.01347194683660683;166.0;0.1823368341038491;0.11361881315515024;0.012950835726216883;169.0;0.1819295700586761;0.10874983609949031;0.011864975925159373;164.0;0.1802586486730077;0.12475034454854719;0.015609563829927266;163.0;0.20488251361239757;0.10520964014961023;0.011105191752247277;158.0;0.17651893763732826;0.10070676811459654;0.01017493478088378;157.0;0.180615852524399;0.10347263002388037;0.010741576896556927;149.0;0.18467291296112331;0.10922877966457067;0.011969701042505655;151.0;0.18778133968139984;0.12013587445028945;0.014479323268311832;159.0;0.19407256375283713;0.12941280048829332;0.01680158077094279;165.0;0.20020065075662938;0.13225578595513998;0.017544975738579105;172.0;0.20364330965871455;0.10253907786009438;0.010547878689969245;163.0;0.1744690713000185;0.12955039184217335;0.016819871921626997;149.0;0.2148652472470221;0.12573019069094793;0.0158362403976241;152.0;0.21002289338421828;0.12474322341553398;0.01559227507847511;155.0;0.20808486729599832;0.12268882225259027;0.015083822744439061;156.0;0.20641560560692332;0.12056717222115554;0.014569855254067192;156.0;0.20467528098503834;0.11832504956443611;0.014030548871303247;154.0;0.20320011316363693;0.1165544744813161;0.013609496884846634;155.0;0.20169365229805378;0.13986000405979926;0.01959655408788657;149.0;0.22157104385415655;0.10860982429676444;0.0118162473867127;149.0;0.19787398211212612;0.11034365489265141;0.01219154546578707;150.0;0.1998675575644045;0.11305140678064277;0.012804082423590778;144.0;0.20264943734243027;0.11800321324854185;0.013952450829726036;143.0;0.20689237976336086;0.12796080506197663;0.016407967709724896;142.0;0.21429605808686703;0.14404311106983148;0.020790273792876686;152.0;0.22754476060573553;0.1484434613403621;0.022076784102756115;153.0;0.23091989406918714;0.10785754919993024;0.011652033764605762;152.0;0.19395527785778027
0.13155444691051976;0.017346206050675102;149.0;0.2065010012385929;12.0;0.12030120496160514;0.014501702630923832;150.0;0.19394339302863509;0.1143871804940461;0.01311538234000608;158.0;0.1871665042682457;0.11071281385923942;0.012281580437330346;157.0;0.18184677401795318;0.10748304479333125;0.011575230411532028;156.0;0.17846926832902416;0.10227368022900114;0.010481406992200175;156.0;0.17539120413028836;0.09595776175175541;0.009230933120025504;155.0;0.17297011303619825;0.1449672453060547;0.021048971969226574;146.0;0.2210367262108499;0.09041295055991933;0.008193941973929928;153.0;0.16618655889521863;0.08970397595353023;0.008069442387826566;151.0;0.16973288984767693;0.09480963183842611;0.009013277796202429;149.0;0.17438433495436395;0.10332961283057164;0.010705630114472724;153.0;0.17987279530887018;0.11924397355027938;0.014253278837399486;155.0;0.18973580834433573;0.13451292049640848;0.018136920863644174;162.0;0.20123786790362502;0.1429460749491186;0.020482758111824442;165.0;0.21101485799224906;0.09064909420445359;0.008230632780880933;156.0;0.16934159146135902;0.11607118887828698;0.013501634925673148;143.0;0.2020877288521364;0.11424354124288215;0.013080786591281151;143.0;0.19730573902418314;0.11441172214566973;0.013112006902042617;143.0;0.1952873583728396;0.11138436710227316;0.012420305575575993;143.0;0.19319464412278028;0.10887857650715818;0.01186086173767449;145.0;0.1914553798591897;0.10669663599930933;0.011396226545929545;147.0;0.19003727439936532;0.10479065139293413;0.010987114477210026;147.0;0.1883004852824134;0.12062134564221089;0.014587473884628636;137.0;0.20577501171638593;0.09506233748044313;0.009024307768958345;135.0;0.18540616522450554;0.09549995659999568;0.009106238022570427;133.0;0.18801389278002978;0.09914920236386131;0.009820665006799201;128.0;0.1929255250141749;0.10341682908093074;0.01069328551517815;129.0;0.1974632464178703;0.1113318528693285;0.012405299939534192;129.0;0.20511320327094193;0.12573991676092733;0.015842148539248473;141.0;0.21810112155236097;0.1305725109827776;0.01708607172703131;146.0;0.22154646791863242;0.09998019009620247;0.009989733482924241;137.0;0.18439670749583997
0.12360589847980842;0.01531948367699489;155.0;0.20239542003443445;12.0;0.10718359408085476;0.011516572105659487;159.0;0.18791422812299838;0.09764253594589632;0.009552231501319728;167.0;0.17876930303669236;0.0917666964238353;0.008433302302569584;166.0;0.17382372617104294;0.0881398494401821;0.007778451445791998;161.0;0.17160666653163165;0.08476868066782986;0.007193724492542192;161.0;0.16870142564417412;0.08263608802924913;0.006840254497946105;165.0;0.16743717130626778;0.1449097001934686;0.021059193168945042;155.0;0.22317128767837674;0.08775238336307588;0.007719173335898415;156.0;0.16993726915818066;0.08611302794023028;0.007431810925772557;149.0;0.17190669026077823;0.08934814905905865;0.007999373246407574;146.0;0.1748510615940588;0.09446042615967547;0.008941213811802727;149.0;0.1801698489933493;0.10429378662552793;0.01090281505382716;150.0;0.18969553139498727;0.11698370263268713;0.013715972163450647;154.0;0.20225348492549602;0.12928089759689937;0.016753453208301055;156.0;0.2130955422339749;0.08804972345310909;0.007775841195419141;161.0;0.17187989128428954;0.10397206784088187;0.010840656362239335;141.0;0.1889920049524037;0.09911048829165947;0.009850601554068293;143.0;0.1841288963165542;0.09686163392233621;0.0094065265107198;147.0;0.1823639314190797;0.09283486655889607;0.008641901412317769;144.0;0.18123971234677383;0.09006301082579111;0.008133343029375578;147.0;0.18042724586031694;0.08762726544771757;0.007702028204784121;146.0;0.17931899014968747;0.08603751232188508;0.0074239004484373105;144.0;0.17787609759805023;0.10924864027528801;0.011973027567654707;137.0;0.19566879447698257;0.08916185131576233;0.007975106903603526;150.0;0.17855968669783018;0.08991174031118686;0.008110293607705913;148.0;0.18065225600430782;0.09297955965087722;0.008673457909019033;144.0;0.1836959238623077;0.09865080783364626;0.009763767721914058;145.0;0.1887661550181983;0.10709639210272197;0.011507046477393841;147.0;0.19591353520587126;0.11918565439158661;0.014251639557906525;150.0;0.20744374937383395;0.12370042182431969;0.015351513564973586;154.0;0.21249881755794003;0.090312523068636;0.008180609357046403;150.0;0.1784733613096938
0.11265799647241458;0.012733653808188762;157.0;0.1915190882268449;12.0;0.10482179992136878;0.011023198133729413;159.0;0.18384633287602453;0.10080244674141248;0.01019454205254454;160.0;0.18124746279472184;0.09820143369182656;0.009675194839547072;155.0;0.1805771869709733;0.09558836466145715;0.009167069510883506;150.0;0.18012135051205744;0.09331731555688114;0.008736093586273851;153.0;0.17942379165495206;0.09020606263731319;0.008164022094814665;156.0;0.1787333937070829;0.14218721341415372;0.020282550188465715;152.0;0.21096003086420317;0.0860326144547098;0.007422439163190753;157.0;0.17695557676393575;0.0878965589323957;0.007749190853619845;150.0;0.18075825988393746;0.09239685145822593;0.008564808331289654;147.0;0.18410203455248098;0.09741353175261044;0.00952038116240757;146.0;0.18753914437082556;0.10758227906187873;0.011611232141985346;149.0;0.19463077297020054;0.11678390077467095;0.013680532396743003;149.0;0.2022269338753191;0.12405290440078766;0.01543695408678448;156.0;0.20628129672950235;0.0844396866004679;0.007150547363938957;158.0;0.1739558191605237;0.10044108307555087;0.01012049368445742;153.0;0.19081649649321636;0.09349423304431007;0.008768294118834409;156.0;0.1844507226162734;0.08978054539343036;0.008086760512762182;159.0;0.18150748786255824;0.0870629439665722;0.007604752742687503;155.0;0.18039046944309553;0.08522902154889472;0.007287538119037013;154.0;0.17908021138456418;0.08349435527481792;0.006994111286319737;151.0;0.17793376348793188;0.08256270410450525;0.0068387072486407584;149.0;0.1766003623978217;0.10824378313390902;0.011753323525089109;159.0;0.19802900155714406;0.08571753654783808;0.007370118866063762;165.0;0.17598272676468046;0.08761187421611587;0.00769782108186411;166.0;0.17709280650744233;0.09011962952483897;0.008143756657627794;164.0;0.17829820692354145;0.09606710165295068;0.009254773468872012;159.0;0.1830976462507229;0.10444306997875856;0.010940646257779754;159.0;0.19020208022131171;0.11550160881149135;0.013378950175500866;161.0;0.2041545150607559;0.121521266080453;0.01480957644460535;162.0;0.21337037965929626;0.08526021800907879;0.007292146830499897;161.0;0.17578694271009948
0.10950892683290919;0.012030810169030504;159.0;0.18762065670015776;12.0;0.10923647671334835;0.011968755927578968;158.0;0.18138973598223648;0.10585849628377784;0.011241785864792929;159.0;0.18084905471123644;0.10094374734400466;0.010222890704149896;158.0;0.1805909484638952;0.0959607712329272;0.009238511581032482;156.0;0.17997426751625656;0.09280137892167313;0.008640130089585406;155.0;0.17948193130237627;0.08935322369329836;0.00800906530022243;151.0;0.17858102064145817;0.13495118714991028;0.018271257641811495;153.0;0.2043290228171073;0.07535315437617804;0.005691950236685411;164.0;0.17081468705931857;0.07765906752602242;0.006043348543528715;161.0;0.1744861441316318;0.08192147554360046;0.006724419709589745;159.0;0.177779000689878;0.0871549280550283;0.007611641286284312;157.0;0.18010189536714055;0.09864881313907697;0.009756652781212367;159.0;0.1862600415270696;0.10848759744824794;0.011801525620472198;156.0;0.19403261815694428;0.11365848956294175;0.012953068660860908;158.0;0.19786690077181038;0.07360685640902573;0.005432694753709461;156.0;0.16875741558621082;0.10518304478679373;0.011095633974466468;155.0;0.18639042065606018;0.09639664483623395;0.009317106990403536;159.0;0.17936987896926174;0.09130768206413238;0.00836075912151287;162.0;0.17542868754922483;0.08786126142471853;0.00774243332577507;162.0;0.17354277817028757;0.08555964731745201;0.007342375557444576;161.0;0.1715984466558486;0.08349938752879833;0.006993789841468744;159.0;0.16970074300454382;0.08236154858690838;0.006803493803693043;159.0;0.16814407690326888;0.11413882455969238;0.01306825885913243;159.0;0.193687294313769;0.08280217817296516;0.006878616229759322;152.0;0.16963629406592862;0.08433646724233955;0.007135776905518567;160.0;0.17054946642362587;0.08728953495805711;0.0076443211076666455;158.0;0.17161884706842997;0.0938548056811121;0.008837491845616543;157.0;0.17574446081070305;0.1047157884939313;0.011000237638775199;158.0;0.1831575925060456;0.12047453976624899;0.01455948510187924;158.0;0.19728972784414303;0.12809252987048633;0.016457504140529104;160.0;0.20595197667636747;0.08498469664279754;0.007245431791317044;153.0;0.16736592949973803
0.10137331514542743;0.010310167540651626;155.0;0.16577885289089395;12.0;0.09477208765419172;0.009010969081876607;154.0;0.15834384062093612;0.08939838118145378;0.008018256688203605;152.0;0.15617636419858577;0.08286315229010136;0.00688861335871363;156.0;0.15538407369580676;0.07719404018318339;0.005978319963617849;155.0;0.15400955375784847;0.07415857318322545;0.005517483206071577;150.0;0.1536290617074273;0.0719086582792225;0.0051877368039517984;149.0;0.15173472589610418;0.12648729795069025;0.016050581603280187;157.0;0.18458865527052226;0.07419768651195408;0.005522465865540159;167.0;0.15109198662274714;0.07470765172317972;0.00559757872841727;168.0;0.15404874981934813;0.07920098094101477;0.0062904795450111186;164.0;0.1558450692495927;0.08465995931801022;0.007186086426062914;163.0;0.15802967226055467;0.09471213545250105;0.008992475589358092;156.0;0.1626636939229275;0.10483081309560476;0.011014550729524957;151.0;0.1697539451237292;0.11541415054784605;0.013352662945459287;148.0;0.1748855866473793;0.07174927658419163;0.0051631329094955014;156.0;0.1483532160999891;0.08318428521590264;0.0069416012940440525;146.0;0.1511949454776463;0.07724167910093145;0.005985785409650748;154.0;0.147869879825733;0.07400308594153714;0.005494276196285534;159.0;0.14605996029703658;0.0712787037588242;0.005096515061746915;156.0;0.1456748054491829;0.06873402591910713;0.004739130591201929;157.0;0.14407634811357073;0.06626981175948507;0.00440574096497424;151.0;0.14196764444781415;0.06542318301281623;0.004294211609370958;149.0;0.14106871911215896;0.09092367977868049;0.008293901797549881;149.0;0.15765315933006002;0.06621798487108387;0.0043992610199436325;149.0;0.1408145631025953;0.06714033694269413;0.004522655416136215;153.0;0.1416674349597246;0.06905158840284127;0.004783794099289735;150.0;0.14234402160264797;0.07352563060243202;0.005423748404624356;153.0;0.14482063406935966;0.08119829506404906;0.006614738128515183;151.0;0.14973802538198608;0.09307830345865742;0.008691874841483005;149.0;0.1585682739661874;0.09887775988575791;0.009808827966685467;152.0;0.1619435217021132;0.07051374700153347;0.004988058799785866;157.0;0.1388666334619019
0.09594257013950341;0.009229290922847109;139.0;0.15770149516203077;12.0;0.08678965139956758;0.007551050680067835;138.0;0.15023682003985686;0.0810366233887309;0.006583698969983988;135.0;0.1464385417727972;0.07604461473463911;0.0057984687898658535;146.0;0.14460510171526933;0.07252772836287583;0.005275244072232286;148.0;0.14325080806052695;0.0693766770069182;0.004827572132778819;145.0;0.14250135104759046;0.06676399271428489;0.004471081332390663;150.0;0.14087626195825143;0.11866970076900808;0.014124273808475479;151.0;0.17292502373699242;0.07494071085323037;0.005634327148943602;159.0;0.1484590467918008;0.07707817096556635;0.005960519119908168;154.0;0.15142718663032284;0.08192480226077865;0.006733663939647145;151.0;0.15231504755950825;0.08699962515014197;0.007593759194911073;151.0;0.15374506134195687;0.09646980090381357;0.009336188789430686;147.0;0.1565281041304717;0.10577508451741144;0.011223404360825601;145.0;0.16150637301657944;0.1166783505503244;0.013654413960666514;145.0;0.16653971394966927;0.07309848353550681;0.005360544132924272;155.0;0.14524664434191603;0.057683781847028825;0.0033362013851141155;147.0;0.12492351263440762;0.05633649074507901;0.0031829710215916258;152.0;0.12373028539346789;0.05656510894163168;0.003208959821962629;156.0;0.1231590049951299;0.05720507299008452;0.0032825383019523193;154.0;0.12421033481775509;0.056913284544575525;0.003249202465957704;153.0;0.12321359479250076;0.055864927784355936;0.003130711750185419;149.0;0.12283252679036687;0.056043919497248;0.003150530632526255;148.0;0.12263918223843218;0.05879527960866431;0.003467330242197272;146.0;0.1260714241610051;0.05709641497694672;0.003270087503115059;155.0;0.12194300795232475;0.05667539671239489;0.0032217765761425542;153.0;0.12245469921459913;0.055744747542469414;0.0031165504123422173;152.0;0.12271267842209475;0.05519418984653815;0.0030545339326326186;151.0;0.12300796489520988;0.05514846367385108;0.0030479120503566328;147.0;0.123776221285822;0.05705298561591472;0.0032603973890513627;141.0;0.12685325001469105;0.05875363132052886;0.0034579521995402812;143.0;0.12814939592591473;0.05866416812528228;0.0034523610863547763;158.0;0.12176855968796065
0.08477929144130557;0.007206968161431095;154.0;0.16209731645170014;12.0;0.07905049978880227;0.006266922102897623;153.0;0.15476469209263263;0.07541032386755633;0.005702015662975521;149.0;0.14999041734587137;0.07292869434436466;0.00533290560052853;155.0;0.1480769732804688;0.07129257307987844;0.005096018731031933;156.0;0.14740253726637825;0.06889936600576423;0.0047594620973726125;160.0;0.14577085347354468;0.06747211957760356;0.004562863834408055;164.0;0.1454985282152057;0.09785729943897158;0.009602063016939666;158.0;0.1733403124494537;0.06779329335872353;0.004596526971627145;158.0;0.14948731503327264;0.07096053052413619;0.005034890807677989;150.0;0.15342202726312523;0.07423230506080526;0.005513734220577038;149.0;0.15517352660639294;0.0777263229425385;0.006045570595471148;151.0;0.15720251575914407;0.08322957017833989;0.006935473828182135;156.0;0.1614580389904298;0.08813809451136904;0.007782010699334031;156.0;0.16652147834441453;0.09392091003397313;0.008841982560719656;159.0;0.17109196091098844;0.06670863816231437;0.004452321647492402;161.0;0.14924308288007218;0.05750339084662846;0.00331693427408667;148.0;0.1382563359851612;0.0568149801245143;0.0032381236759690198;154.0;0.13472235039913855;0.05820859951261346;0.0033979445309963293;156.0;0.13309040481338755;0.06024982314974148;0.003640274970376308;160.0;0.13230900757568978;0.06116009833215561;0.00375046374875691;157.0;0.1314717562352813;0.06018498536025561;0.0036330924219758593;158.0;0.1315997449862093;0.059665174398096;0.003570745379752451;155.0;0.13096644676628927;0.05862934562014126;0.0034477808574560433;150.0;0.14198607360978893;0.0546214086814826;0.002992990207836815;148.0;0.12985045594062783;0.05474344635099534;0.003005878092862833;148.0;0.13127082847112476;0.054223420031463854;0.00294907826868036;149.0;0.13178855919787974;0.05402651352028193;0.0029271047698809873;152.0;0.13325361538548902;0.05489497351065307;0.0030208607750284344;151.0;0.13514714364511377;0.058424620124988044;0.0034209623712561045;144.0;0.13930254020350333;0.060727636231371;0.003696936941521171;151.0;0.14274544943989276;0.056203851511497045;0.0031682250781260536;151.0;0.1303487559335112
0.1066683124818039;0.011404461323584289;169.0;0.18203958631239053;12.0;0.0924394446630155;0.008567843608489318;159.0;0.17125873363191754;0.08512369608854412;0.007266474133344117;157.0;0.1667056864404387;0.0817959992211875;0.0067105476530215724;152.0;0.16565202863993922;0.08006170458957365;0.006429019896624485;154.0;0.16540157516622625;0.07904415430635404;0.006266917615779802;157.0;0.16411203668278673;0.07838021269640538;0.006162680958031712;160.0;0.16373731210899506;0.1323006641695594;0.017542992485664075;165.0;0.19844759956933167;0.0773728877323346;0.006006300129418325;154.0;0.1614903783965983;0.07945842215016455;0.006334385974616532;151.0;0.16488828712020953;0.08490356410583692;0.007231894856195379;152.0;0.16683394990073405;0.0914508827566186;0.008390110008753029;154.0;0.17009084655983117;0.1025625168546525;0.010551584987301372;160.0;0.17680878495552235;0.11095571689570904;0.01234801142452525;169.0;0.18342776188448157;0.12085287178503382;0.014647879788715101;172.0;0.19059361402361824;0.07478236868037819;0.0056105908540344;156.0;0.15937525567556188;0.06596965315035178;0.0043652384121010655;151.0;0.1518349779334971;0.06229680183097318;0.0038934253233728158;158.0;0.147678697654355;0.06270499012170634;0.003944745156755761;158.0;0.146080521921082;0.0632133174967855;0.004008990529207039;163.0;0.14483393264498784;0.0630512619167057;0.003988478934760051;162.0;0.1436686467826451;0.06175509836349387;0.0038261978626511805;165.0;0.14300233686368524;0.06068367964371769;0.0036945696396765686;159.0;0.1420902142752567;0.07065736554600688;0.005006462121815884;152.0;0.15809810896286552;0.06497288523048814;0.0042349402272746075;146.0;0.1491727209347952;0.06794803975821194;0.0046306662078073125;151.0;0.14935052970703172;0.06983387905775798;0.0048908718334141656;150.0;0.14936050778512072;0.07162239032304805;0.0051439313537456075;149.0;0.15014828421250045;0.07621532992555306;0.005824169233684913;153.0;0.15379313272336723;0.08553735518995093;0.007335130756558943;154.0;0.16199435833109138;0.08248722520892347;0.006822006148648676;160.0;0.16149284355256419;0.07200888305912168;0.0052021799053475655;151.0;0.15138562257101
0.144078118927967;0.02082682744770185;153.0;0.2146198723762258;12.0;0.13455563660599473;0.0181629589219214;143.0;0.20688271596657654;0.1288875159467565;0.016659543833448708;148.0;0.2038171090637677;0.12545417637312745;0.01578095796914072;149.0;0.20246218507009797;0.12251914334622203;0.01504778646708291;150.0;0.20176440648923155;0.11808254315516777;0.013978687513913542;151.0;0.20127569866504855;0.11175052720107527;0.012521659135760126;155.0;0.19987959575997258;0.17129867315846764;0.029439708280723773;157.0;0.23432098979785787;0.11841299430579263;0.014067233045630928;155.0;0.20351038131902816;0.11058951563936442;0.012269995493369297;153.0;0.200328714579553;0.114407271529237;0.013130779869713147;152.0;0.19970294483636677;0.11944951621517562;0.014313603794011918;149.0;0.20143575876977143;0.12927889770812712;0.01676640695389275;155.0;0.20591443432711126;0.1388014470294951;0.019327009563514536;163.0;0.21202871080139465;0.1497633937332184;0.02250024842536717;164.0;0.21841016865435817;0.12273224296071437;0.015111964826205554;159.0;0.20462092391498252;0.08240562622270828;0.006812834805062013;153.0;0.15864387205252883;0.07664589550099199;0.005893800315119347;149.0;0.1540716065829259;0.07449619231347264;0.005567729554524401;145.0;0.152898798742426;0.0719903003310917;0.00519936233413213;148.0;0.1518740213916091;0.07018208696020688;0.0049415844757094195;149.0;0.15053119930597325;0.0686285311153769;0.004725287872112482;153.0;0.1496887680671663;0.0677693802416521;0.004607586370459142;150.0;0.1493868256262209;0.08945477215253798;0.00802828471912741;149.0;0.1668318722390443;0.07626543315141698;0.005834058127227065;142.0;0.15749449897379472;0.0793205048081616;0.006311309421579099;146.0;0.15754169206884847;0.08195546168066975;0.006736322507821592;144.0;0.15838865509886363;0.08533616013017088;0.007304352345331266;142.0;0.15945572230271207;0.09141120249125831;0.008380465054838875;149.0;0.16503645039540799;0.10159888036285124;0.010353096461598623;153.0;0.17749932460408702;0.0984991623217742;0.009730222278249103;153.0;0.17806243591872303;0.08306540491547723;0.006919186370438671;148.0;0.15963994133668752
0.1652959318335696;0.02738631196908984;143.0;0.22238853073451748;12.0;0.1606040159774046;0.02586734562234461;145.0;0.21802134545190519;0.15953757353338158;0.025526954430670757;145.0;0.21653406762014601;0.1535991179190189;0.023662851910129235;149.0;0.21472310197800412;0.14888308905308054;0.022231227217295094;151.0;0.2135452360646798;0.14322311409766428;0.020575652005032183;148.0;0.2135124771202297;0.13652881615410384;0.018697176542233424;149.0;0.21210215400049393;0.19326341645353412;0.03744037321064652;148.0;0.2391688304234811;0.1551460534398074;0.02414900702202362;149.0;0.21894392167970314;0.1443699780191872;0.020908981456274203;145.0;0.21701608429772906;0.14477030560468343;0.021022055461745036;142.0;0.2155644579550708;0.1468203187303321;0.021619854633415397;142.0;0.21518308874270875;0.15465244668424666;0.02397990462471935;146.0;0.21866189523534255;0.16449597384594492;0.027132112613591722;143.0;0.2238645249871082;0.1737671082060785;0.03027277600261548;144.0;0.22794413158578994;0.16479314272145656;0.02724521347390304;148.0;0.22011670344560572;0.0794480889295515;0.006332272210965633;149.0;0.15964573027310255;0.07389911863106279;0.005478401434853027;139.0;0.1538014124234776;0.07237615583221706;0.005254588766337622;139.0;0.1523221947490625;0.07111352895026146;0.005072065342939586;140.0;0.15113599418203674;0.06992933063565793;0.00490496225211687;143.0;0.15017717361454685;0.06873833211243274;0.004738598139571042;143.0;0.14960645835134878;0.06803152154096632;0.004642783370896178;142.0;0.14957870000870133;0.08943882930902583;0.008025255497119051;148.0;0.1701991507545208;0.07079728317068149;0.005028710540499772;143.0;0.15139546462873513;0.07293509261804461;0.005336910393558299;142.0;0.15350475167669508;0.07519905350342893;0.005673209471008815;145.0;0.155802047506184;0.07888539900372235;0.0062431648754060695;146.0;0.15840956633809755;0.08459447308119258;0.007179589789342121;146.0;0.1651497439503183;0.0931340326732023;0.008702318859121656;144.0;0.17937631356664324;0.09528551290749021;0.009109044092218417;140.0;0.1833522932968432;0.06990865184340221;0.0049030339714240525;148.0;0.15097917663793287
0.14577543083597053;0.021319860316181573;149.0;0.21143732719465508;12.0;0.13949512268634395;0.019522372192063965;150.0;0.2049488648097683;0.1359419604975779;0.018539741714269066;148.0;0.20060991157885452;0.1272843774817271;0.01625280257434356;148.0;0.19722003051017312;0.12157079954299777;0.014823279217526457;155.0;0.1955887623325311;0.11744179501766261;0.013836626003488776;149.0;0.1953732616408224;0.11494010474061724;0.013253905876539336;147.0;0.1949738964695062;0.172168621675251;0.029738485149869057;151.0;0.22678535847890596;0.132482172190908;0.017597937208860825;139.0;0.19797853039627133;0.12508923651833767;0.015690501716973573;141.0;0.19940987931390103;0.12486443153056544;0.01563291843236635;143.0;0.1988583258791757;0.12699914048626199;0.016170878334551084;144.0;0.19896591566085042;0.13595602981673366;0.018540827935475544;145.0;0.2051827795825141;0.1464753486641141;0.02152285392226247;149.0;0.2123724467346162;0.15568016900717885;0.024312382609511803;143.0;0.21824809899620043;0.1415532921087781;0.020097714392615682;139.0;0.19681344665394368;0.08348718393510844;0.006992732259257488;157.0;0.1654912817413034;0.076542029935516;0.005877633643132514;154.0;0.15925984867152093;0.07355663209300703;0.005428039627304147;160.0;0.15660565238277754;0.07179459574985231;0.00517135070755497;161.0;0.15459883659930246;0.07010534560296945;0.004930773825126908;164.0;0.15317106093219313;0.06846104568860316;0.004702316686343547;162.0;0.1524769718720118;0.06677572905542258;0.004473628363669477;161.0;0.15220299388415406;0.09316517465098506;0.008708244344221178;158.0;0.17278843100301497;0.06609242544450697;0.00438153084776776;156.0;0.1500036030215262;0.06811635011673756;0.004653869795744369;154.0;0.15228659931912047;0.07023977977064856;0.00494862122653678;159.0;0.1544846863065972;0.07466564369974954;0.00559292815987006;158.0;0.15692706623892858;0.08396039972895357;0.00707238306553826;157.0;0.1639818737628402;0.09745970860379441;0.009529515917389958;151.0;0.17821571181073784;0.10364775858261305;0.01077803838208274;148.0;0.18416145730659497;0.06404393982767366;0.004113732730485111;152.0;0.15014416898371133
0.12213846865031758;0.014965576718776219;151.0;0.21789160201600966;12.0;0.11954287695414825;0.014337145724408794;149.0;0.20997293078564264;0.11634037490474004;0.013579300718183347;143.0;0.20306249366015774;0.1095276405366255;0.01203529434368743;144.0;0.19819766296280236;0.10240990349919346;0.010522059191638296;151.0;0.19536787225412555;0.09707997616336651;0.009455060959454862;153.0;0.1934753209622089;0.09412514482729577;0.008888429845548065;154.0;0.19218487178212798;0.14144511333510695;0.020071083712112445;153.0;0.2368716883123121;0.08411618230348035;0.007098333010899236;157.0;0.18867840261846097;0.08102941052903756;0.006587106344114188;158.0;0.18856055110631478;0.08306038207587867;0.006921572668932722;158.0;0.1904604631371536;0.08647088356480438;0.007501518892467043;157.0;0.19381820364886745;0.09541721012674483;0.009133931884971342;153.0;0.2026475216833161;0.10580134287098711;0.011230092699704822;156.0;0.2116506551168352;0.11576896062791064;0.013442209696128958;152.0;0.22037923772710763;0.08881044215840062;0.007910275385667584;158.0;0.18996762029622583;0.0823053620441986;0.006795339971139103;169.0;0.1674529134052037;0.0777066389475569;0.006056671903555292;174.0;0.16265001230122206;0.07639182175394957;0.005854334809779593;176.0;0.1603631476729001;0.07533266968639536;0.0056935298835097264;173.0;0.1589344933958966;0.07443720552988664;0.005559071954510907;174.0;0.1576852489224684;0.07334427084046866;0.005397249139668394;170.0;0.15697280198589927;0.07241147803045878;0.005260841101002214;166.0;0.15688987301583884;0.08875248111849363;0.007902602436152036;161.0;0.17361305765826998;0.0719725183604088;0.005196788948979798;157.0;0.15596441868313832;0.07002334293640637;0.004919559209119917;154.0;0.15590418877031145;0.06995334426891742;0.004909735111035679;152.0;0.15652231565562105;0.07275678833935827;0.0053110819674367146;155.0;0.1580313655650149;0.08134743590959145;0.006638796903004971;156.0;0.16439658911113003;0.09501265477774402;0.009056745498671009;156.0;0.178164043767959;0.10040402872894273;0.010113586263854966;158.0;0.18422472374952548;0.07691043372678451;0.0059343397201740335;151.0;0.15722527899155692
0.12680306381347006;0.016122947167398975;158.0;0.21700902000956923;12.0;0.12764039417339315;0.016336293109872876;153.0;0.21020850231435936;0.12987080556094016;0.016916021416943566;147.0;0.20720383499184178;0.127124005311838;0.01620921831393039;150.0;0.2045603067156397;0.12156321462020561;0.014820025953744346;156.0;0.20195462021879318;0.11568233320956356;0.013419064771889895;155.0;0.1993789322142161;0.11120596552801375;0.012400931601154528;156.0;0.1971336611013258;0.1467719488526495;0.02159331056921207;163.0;0.23749167676317645;0.09910906076529293;0.009842805707122208;168.0;0.19256219365582375;0.0989048314473443;0.009802552914770968;168.0;0.1928168952092402;0.09964063092601987;0.009951421599455113;164.0;0.19433062632198536;0.1010940199617143;0.010242275919664126;166.0;0.19765025214858514;0.10548845163537673;0.011152845535488353;157.0;0.20432287118322176;0.11131161019905213;0.012416296048738826;155.0;0.21084462847494603;0.12002326719038504;0.014441203462213363;157.0;0.21806116486134966;0.09886035321956378;0.009796410146355706;163.0;0.1929528729020524;0.08500272989850932;0.007243222890306924;166.0;0.17794395937227964;0.0797470133566185;0.006373576965907213;169.0;0.17301453318986504;0.07801242543553434;0.006099846615778868;168.0;0.17063644430903618;0.07760748765641584;0.006037894897746152;170.0;0.1696247639600099;0.07728706808790502;0.005987326951051554;168.0;0.16892840326530123;0.07719984367447749;0.005973955886437404;164.0;0.16798248518450207;0.07752277504463742;0.006023666375546266;160.0;0.16820753707222705;0.09125559364431023;0.008340548902220664;163.0;0.18573560805076147;0.08254629743511809;0.006831174233402141;166.0;0.16995760283259254;0.08052172411750454;0.0064987659396374695;161.0;0.16951996347259393;0.0792701988192889;0.006299307968920642;159.0;0.16962174623324885;0.08059275737031334;0.006511812938183175;163.0;0.17124220478349061;0.08531792232941407;0.007297681756804698;162.0;0.17659893033211527;0.0953733628522948;0.009122053468306163;160.0;0.18988307701351625;0.10295006691414851;0.010628812670715004;165.0;0.19722119381769546;0.08510592564233604;0.007260651116048195;161.0;0.168316641099774
0.12224337621766339;0.014990791786444288;163.0;0.2137646985994819;12.0;0.11501550676972629;0.01326808328615823;155.0;0.2056823749256536;0.11539013385987774;0.01335031984527436;153.0;0.2039436640399924;0.11610774114180207;0.013516502028912225;157.0;0.20270289565720487;0.11517267142891263;0.01329949745649946;160.0;0.2015163004791929;0.11263041121945622;0.012719490220842405;156.0;0.20001142550882187;0.11060147067969345;0.012264697944085188;155.0;0.19888904305889382;0.14150584676294853;0.020089484803013015;163.0;0.22445005100594773;0.11334346638439972;0.012883508405963973;157.0;0.1986213859567511;0.11402857724744626;0.013041833940567852;164.0;0.20044871067368383;0.11500141682582712;0.013264437834530317;160.0;0.20110484067292037;0.11661120025127283;0.013638149810810813;160.0;0.20281808348674396;0.11957013604849073;0.014340396794761073;157.0;0.2057785628708267;0.12483186096864868;0.015632731386602542;155.0;0.21014726245671003;0.13122983167908558;0.017276389087228405;158.0;0.2156624631336786;0.11277445148310737;0.012753492815790258;163.0;0.1963162691744858;0.09250209511961464;0.008583543544241252;152.0;0.17852642982396935;0.08538214948454753;0.007313250445706909;155.0;0.17441507831822203;0.08143675795912712;0.0066530516441033714;156.0;0.17250430739995842;0.07889036253356607;0.006243773218007449;162.0;0.17116034888276202;0.07700373594902205;0.005948368882987394;158.0;0.17011935167036374;0.07613786127672718;0.005815605338714941;155.0;0.1691646355340183;0.07543603223672654;0.005709200225380677;157.0;0.16860525465818135;0.10358407211411458;0.010762991648574643;156.0;0.1873706133356052;0.0796303810854249;0.006361682651566669;162.0;0.1685852825843304;0.08048399670041297;0.006498739427689762;158.0;0.1703390063924335;0.08036558515374456;0.006479738334951772;158.0;0.17138765584374532;0.08272145288754064;0.0068651274883990724;164.0;0.17296753007783827;0.08927922932518595;0.00799672287517604;164.0;0.1772612329423841;0.10152830671754103;0.010341655683121143;154.0;0.1882192413820351;0.11129423513911912;0.012426364928965258;156.0;0.19637165347988242;0.07815791184555415;0.0061285756218221405;161.0;0.1668403013075429
0.09422217968000202;0.008906434498243316;161.0;0.18253220846741836;12.0;0.0847490544561503;0.007205802524322687;158.0;0.17528224314442584;0.08362729500605633;0.007015528256756285;157.0;0.1723507373900881;0.08438892011590807;0.007144211246031931;165.0;0.16996515989678104;0.08481294871452724;0.007215352216723948;163.0;0.16880137428670014;0.08477078755954294;0.007205908848268081;160.0;0.1674733512957124;0.08428480365855567;0.007122554312939304;156.0;0.16708156461469903;0.10964441291679315;0.012057906021695649;150.0;0.18726480466556156;0.0931489637390794;0.0087014867375817;153.0;0.1691383218766731;0.09364801502689463;0.008795019152349412;152.0;0.17150604664123498;0.0959225347483478;0.009228152614544339;153.0;0.17329690595412978;0.0979486692836009;0.009621927771258282;155.0;0.17530639366057063;0.10165131811289527;0.010360039701310338;154.0;0.1777028523037651;0.10685377052017103;0.01144977973605445;154.0;0.18106418804650456;0.11070473408346251;0.012288563519277412;153.0;0.18577318564792775;0.09416866713921665;0.008892770006902856;167.0;0.16721937415448956;0.07470453058032142;0.005584539133887848;137.0;0.14224374469255874;0.06949898644988689;0.004835804372008951;138.0;0.14032688218065179;0.06687494537224836;0.004480001335422156;142.0;0.14037975129632452;0.06419816574362304;0.00413041294927924;145.0;0.14000206212960403;0.06211335359999274;0.0038652264588166898;143.0;0.13874545045638953;0.06056543017553108;0.0036748843744275265;144.0;0.13800700213622658;0.05917069636391683;0.003507660426487558;149.0;0.13625848226935888;0.08731907482991991;0.007624998846565849;140.0;0.15102660950449934;0.05831115569401185;0.0034075924112456366;145.0;0.13647462092206614;0.05949571022431412;0.0035478374814136506;143.0;0.13823083856255122;0.060501830831580415;0.0036686925537159913;141.0;0.13995358857422877;0.06292066211525868;0.0039672935463342255;144.0;0.1405197423711039;0.07019582494928131;0.00493797989899252;147.0;0.144147317968222;0.08280499729749678;0.0068680342474626;145.0;0.15103773738979556;0.08945587258853335;0.008013337235396354;141.0;0.15446899929750776;0.05840334797823293;0.00341704813374016;145.0;0.13663874051938107
0.05944942266665986;0.003539566148838471;156.0;0.12794315528762928;12.0;0.06042658044559102;0.0036584249263653633;157.0;0.1249305621601145;0.06002044055419874;0.0036097649609601284;154.0;0.12371680456280813;0.05852831024314435;0.0034297132734632564;155.0;0.12175265882054832;0.05689122243127683;0.0032381827963883095;154.0;0.12006841052297196;0.055117702008786476;0.003040968521891636;157.0;0.11876237771258856;0.0525451009810641;0.002763213165165355;156.0;0.11739836186364562;0.07090310710098444;0.00504094821621115;149.0;0.1401192971879348;0.05610373063892636;0.00315312543009138;152.0;0.12394533586379586;0.05477510801603229;0.003007028441283684;144.0;0.12492835596917656;0.0562156262456257;0.0031689476698136083;147.0;0.12669626136915527;0.05758407613461997;0.003323457567268154;146.0;0.12827866393977028;0.06056462309835585;0.003678642145703171;139.0;0.13097601407481174;0.0632388331274835;0.004008144043121761;142.0;0.13509787498734674;0.06543761095105918;0.004291636867317631;138.0;0.13576672463233486;0.056463186538236294;0.0031928579098642216;155.0;0.1220553308322574;0.07087871138917495;0.00503967290285018;127.0;0.134512220130878;0.06695415206739215;0.0044972170100468075;126.0;0.1316928805461295;0.06484415977316117;0.004218404619993799;133.0;0.13179335908321715;0.06260847955100254;0.003932608664838226;133.0;0.1312667979487043;0.060579567441972314;0.0036818843004093006;138.0;0.12994964145686994;0.05892210553267183;0.003483170432185845;143.0;0.12903372772319796;0.058066474557406135;0.00338265040836129;144.0;0.12813434505615995;0.078266993929726;0.006145688188411905;127.0;0.14120702443992147;0.0554721130570357;0.00308714364569836;145.0;0.12773705436294439;0.056829135556428184;0.0032401289040139;144.0;0.1286642162492976;0.05971643492581794;0.00357772808588909;145.0;0.13019242483010576;0.0637070843213692;0.004071779385545226;145.0;0.13108194466881468;0.06946688268675195;0.004841401547095108;141.0;0.1347037195415918;0.07865676643910556;0.006207082314295325;139.0;0.1419086271287907;0.08099642082877069;0.006581816686557246;135.0;0.14478117715096223;0.05933035958995774;0.003531457604156781;135.0;0.1269989850697444
0.06600912507639058;0.004367924180631428;154.0;0.1383041633734356;12.0;0.06007170912100992;0.003614848076837824;161.0;0.13051270813675991;0.05595515902527664;0.003136479618228914;154.0;0.12600348978054282;0.05269666869674074;0.002781935338625924;146.0;0.12297549724042316;0.05077803507930517;0.002584565138240331;148.0;0.12265138613841184;0.04849229310507339;0.0023577047019389145;154.0;0.12133291946561575;0.047035588917997674;0.002219015911476751;156.0;0.12019659847943095;0.08004412106732864;0.006423240542096746;144.0;0.1562679447354572;0.04839632359248425;0.0023496896577666435;150.0;0.12843326033373162;0.052020249470611415;0.0027147734565304946;145.0;0.13020771926457408;0.05592251364707194;0.0031374366066579448;148.0;0.13190423132658158;0.05954484703613168;0.003557158086184306;142.0;0.13353626991269518;0.06631397728786498;0.00441193498893201;142.0;0.13971203687432218;0.07463121150628192;0.005588043787264374;140.0;0.14887281939305705;0.08061028818663084;0.0065192883460575375;137.0;0.15290694694025203;0.045387904136200315;0.0020667907740914565;148.0;0.12481170083607268;0.07245539087247055;0.005266635396304922;126.0;0.15408862302827178;0.06909681273392329;0.00478927089689959;127.0;0.1511219723126999;0.06766733193228389;0.0045921872208044235;136.0;0.1499768031743084;0.06656104817229933;0.004443095416485905;136.0;0.14892972068318835;0.06598833933210595;0.004366443285517263;143.0;0.14795389465204853;0.06572786037846105;0.00433110149849724;148.0;0.14752994060229915;0.06557460797192882;0.00431010054031488;146.0;0.14669598161939296;0.07441593391345817;0.00555553273018655;123.0;0.15767465485584636;0.06946532755957718;0.004834564176044752;136.0;0.15022865306588318;0.07022746962334056;0.004942555131536733;140.0;0.15132191828620886;0.07181930335595192;0.005169280200846821;138.0;0.15155521624169616;0.07448195371593129;0.005561059311955021;142.0;0.1525549778392261;0.0779329509215734;0.006090366992010615;136.0;0.15550527816028525;0.08436058432880236;0.007139267619216463;130.0;0.16347896543302412;0.08540771206810777;0.007318334698319459;131.0;0.1660327784390695;0.07217128784734693;0.005220257835009258;130.0;0.14868746628159124
0.08743176288416953;0.007669381367174224;158.0;0.16417009605528338;12.0;0.07963078152195696;0.006360854135648958;164.0;0.15363492678244614;0.0730623532195596;0.005354462728369511;160.0;0.14650207782802677;0.06788761423321589;0.0046234251118615136;160.0;0.14167164803225332;0.06398189349261757;0.004106567674794304;161.0;0.14037938009981463;0.058454912860670186;0.003427737098309211;161.0;0.13717296906467566;0.054074670918136857;0.002933353889448875;164.0;0.13573566607167686;0.11257821200675266;0.012715338938985125;145.0;0.18613620508946563;0.05523590040077256;0.003060974571988341;151.0;0.14191252288922485;0.05866325451773727;0.0034526721822836152;150.0;0.1440668164550713;0.06280895045197066;0.0039579062047917744;150.0;0.14599233024811004;0.0671841607919521;0.004528433196047981;149.0;0.1489809236587655;0.07566952439443816;0.005744374714656076;152.0;0.15753029470321897;0.08619208465933938;0.007452323725240354;146.0;0.16747047012854857;0.09662290473617385;0.009365181198651923;143.0;0.17626295267727105;0.05325589410091528;0.002845487228272377;152.0;0.13919285030976897;0.08217969390971365;0.006763573109510333;150.0;0.16159210766547413;0.08081279814338051;0.0065414630052489575;151.0;0.15950361388785173;0.07777646959652419;0.006063193348231006;153.0;0.15794566926200151;0.07592494147079218;0.0057808369543586565;154.0;0.15714378438756144;0.07493224163406101;0.0056326340405535745;156.0;0.15661706680780124;0.07412321738169922;0.005511926912892701;160.0;0.15625593547211591;0.07353969942156437;0.005425407339308451;158.0;0.15511595431126773;0.07469132890319266;0.005586903114037394;148.0;0.15946760846270744;0.07594859671607938;0.005787029686863484;151.0;0.1548491935904608;0.07673043044216457;0.005906484746554363;152.0;0.15660010821748238;0.07813725077312106;0.006124941237970606;147.0;0.15764896980915413;0.08094083427573982;0.006571778345694347;151.0;0.15990508381704593;0.0860257526166796;0.007422806578317126;144.0;0.1648129164125187;0.091811233462978;0.008453989851303377;138.0;0.1723364551999244;0.08856392441161053;0.007864297308972075;139.0;0.17251298747719002;0.07502942248661272;0.005647572338025191;146.0;0.15298311677635526
0.09505631257831379;0.009064597936666127;158.0;0.1698764754477262;12.0;0.08825277523052547;0.007811154587656981;154.0;0.1612916236794928;0.08325750293771234;0.006951243786800794;153.0;0.15887401736476137;0.0792444665986888;0.006298065459307998;155.0;0.15686536886626035;0.07568848798215469;0.005745287679488567;152.0;0.1559039845819788;0.07107151565510318;0.005066554184978011;150.0;0.15423214012225658;0.06682222618205061;0.004479429494165847;153.0;0.15303004953339766;0.1199189552679778;0.014424987243702926;145.0;0.1910595873836004;0.06502160622248356;0.004241612228915815;150.0;0.15352580353584735;0.06594420649448532;0.004362471206696659;150.0;0.1559630982524413;0.06921786214513023;0.004806567165311104;139.0;0.1584792155601351;0.07431536435341493;0.005540562709316522;140.0;0.16224866678994077;0.08435243801480255;0.00713851811685949;147.0;0.16948440813519214;0.09505376166008343;0.009064784788355318;146.0;0.17706908096065363;0.10431431774623431;0.010916917886570175;145.0;0.18394223084634442;0.06365524926817515;0.004065267809681705;150.0;0.15096248825771516;0.09660687523979553;0.009352208698097058;165.0;0.18131707274721184;0.09571676432152262;0.009171490028911232;171.0;0.17819396278945518;0.09125589438277881;0.008329049837420173;171.0;0.17642176074217322;0.08778335116120818;0.007703929278513089;173.0;0.17500128153087713;0.0854203066324534;0.00729125432563137;173.0;0.17441498357411345;0.08353414200423526;0.006972089956076631;171.0;0.17313174399082137;0.0825159286153813;0.006797016457694459;168.0;0.17253555190049036;0.09376444933823938;0.00880840767276442;162.0;0.18491321861025992;0.08706232717628941;0.0075795489251751225;176.0;0.17613911872700566;0.08526703736275763;0.007269587134625639;173.0;0.1756364332441644;0.08479765730885898;0.007194150829115907;168.0;0.17533137614735203;0.08697115329316973;0.0075757873449357836;170.0;0.1773685278585853;0.0923085587377395;0.00853996342246799;159.0;0.18314674136675163;0.10095279511045814;0.010221822722137903;152.0;0.19421806738727196;0.10052229213662639;0.010136833822131429;152.0;0.19775960020965008;0.08766943689296634;0.007680130241900212;161.0;0.17260687865030522
0.09863766479440414;0.0097513672573714;161.0;0.18271660264083545;12.0;0.08734787581849414;0.007636785443921932;156.0;0.17228128527998665;0.084266663567355;0.007104496802529228;153.0;0.169144551101388;0.08142205091734198;0.006634829101314039;152.0;0.16720203686654128;0.07893207896692693;0.006238151856410486;146.0;0.16598578029905545;0.07626724996345782;0.005825649798884259;151.0;0.16526542081276882;0.07327904341219418;0.005379851753188419;150.0;0.1632263911790502;0.11462431690206674;0.013179215827528488;152.0;0.19995228900189135;0.06997667524380227;0.004911340237193582;159.0;0.16302742991677227;0.07253516790367565;0.005276441453616456;159.0;0.1661797313782034;0.07635086506134886;0.005846328634536753;149.0;0.1695193086178914;0.08186012361712404;0.006721226804462101;146.0;0.17375049834107176;0.09199874916830886;0.008490092391496888;155.0;0.18118045069999708;0.10418212551858932;0.010887769385635201;157.0;0.1897189291622449;0.11289603062992798;0.012785855086246245;157.0;0.1960026166229131;0.06749258844488192;0.004569401020716772;162.0;0.1594412346151085;0.10370055219300033;0.010787211394845557;157.0;0.19260364910200456;0.09730198581553613;0.009495871593737994;156.0;0.18689155824587936;0.09156949252543628;0.008411466401960168;156.0;0.183895196493852;0.08714860310807669;0.0076195602801532895;159.0;0.18197552420755098;0.08432945989736762;0.007134797100596166;158.0;0.180709440977734;0.08231105214183577;0.0067973862739043175;157.0;0.17946210926293915;0.08134169230164896;0.0066382174381335;157.0;0.1792676887326423;0.1115574266710803;0.012482524969654976;149.0;0.20226976823616594;0.09170722392805863;0.008437858819564159;159.0;0.18904159691482633;0.08900848265673007;0.007948535179948703;160.0;0.18819572996003006;0.08849882773596168;0.007857825837848506;160.0;0.18725111345115192;0.09089223183978133;0.008288532104767694;159.0;0.18912303585761167;0.09755082147922181;0.009546967914004651;156.0;0.1948636618915651;0.11230556893137443;0.01265394682674128;154.0;0.20867198547040386;0.12051421901230507;0.0145712509709519;154.0;0.2151123612178882;0.09465722261594957;0.008989446618797718;148.0;0.18430501674283936
0.12606597057668295;0.015944546280296033;169.0;0.20092591982459326;12.0;0.10845025142105937;0.011799948666055155;166.0;0.18835201079155944;0.10054383738599683;0.010141973635272585;164.0;0.18070084366788985;0.09309015630773461;0.008693805298902773;165.0;0.17586611088174275;0.08699082763096819;0.007591526503934396;162.0;0.17249856446471007;0.08170656630204445;0.0066971654942832816;167.0;0.1703754019477929;0.07739203838776736;0.006008726865093849;165.0;0.16801699894627262;0.15461753095158207;0.02398452434146746;172.0;0.22150215321665293;0.08764272746207423;0.007706411382021898;168.0;0.1735980008420474;0.09298651588254413;0.008674795159591272;170.0;0.17702517825664463;0.10159900281555041;0.010356137324444353;168.0;0.18150498170533513;0.1111842853032723;0.012401853015404803;164.0;0.1858563609676564;0.12728614470411623;0.016254657779083897;164.0;0.1949512062831303;0.14188904867197097;0.02019831735338929;163.0;0.2049289133884482;0.15223111395494568;0.023250217132299127;164.0;0.21249237212518554;0.08543644834974419;0.0073233128787584196;167.0;0.1703106119617996;0.10386850595432826;0.010818983135210866;140.0;0.1901506383482087;0.0956911162382729;0.009174993630779322;134.0;0.18498076770625152;0.0905972022000509;0.008221672794453875;139.0;0.18242522240887188;0.08593298070049497;0.007393541799094383;146.0;0.1811395387895014;0.08260164253126495;0.006828091242160002;148.0;0.1794163364931314;0.07995459631989384;0.0064010112952783815;150.0;0.17887478910374147;0.07828918356858022;0.006135473671888345;151.0;0.1784158637791605;0.11166795489228976;0.012504045719440474;139.0;0.19608923364314362;0.08195112444783295;0.0067271155620402595;138.0;0.1794556389777844;0.08172276753067242;0.006694302669277942;139.0;0.18130604176214107;0.08442635466150841;0.007145894589769496;141.0;0.18234729925866172;0.09061980963669018;0.008236846606237705;138.0;0.18623781861825997;0.10121323176285581;0.010275359879206624;137.0;0.19194876334095762;0.11877774016456716;0.01415414613510238;138.0;0.20094925630936059;0.12735660203109772;0.01627271214300607;140.0;0.20616430290702512;0.08505063315760206;0.00723957444769548;137.0;0.17637530191350428
0.13450095358436417;0.018137650390829957;166.0;0.20720078971834485;12.0;0.11566256850275762;0.013406239298034278;162.0;0.19639624123533678;0.10344644524581995;0.010713948583093824;157.0;0.18886228333600671;0.09404940839410883;0.00885740400764303;155.0;0.18435062139963046;0.0879912829825946;0.007752496689796065;157.0;0.18152726503275415;0.08240385648254701;0.006802702746154922;157.0;0.17953400492256852;0.07815238425241196;0.00612065093998029;156.0;0.17817247956544374;0.18025691504832586;0.03259392172232373;170.0;0.2346642054935341;0.09781322738974645;0.009597046867625381;156.0;0.1859617504023155;0.10436291679573816;0.010923709130122637;160.0;0.18867165787237938;0.11406987452321389;0.013049419303537488;163.0;0.19246860264518076;0.12435711728990012;0.015511484502229694;159.0;0.19624819073869398;0.14277600728777834;0.020444512643049112;158.0;0.20484361669434298;0.15903734881480758;0.025366192359085684;164.0;0.21435536011044187;0.17024152896495287;0.029065700237811493;159.0;0.22151507268723628;0.09493858725542795;0.009042449658568999;151.0;0.1831276045463308;0.09414253762654085;0.008888764517830418;141.0;0.18749154528679898;0.0927122198220013;0.008620604139461068;141.0;0.18494474360390686;0.09200150501645876;0.008489404214309642;146.0;0.1836614461008292;0.08977494326870546;0.00808320757471569;151.0;0.18244362975534653;0.0876060601959653;0.007697900547192059;154.0;0.1808206429831147;0.08557146046614872;0.007344916029807403;153.0;0.18039962958911665;0.08416244807461555;0.007105404861427547;155.0;0.17884144681590394;0.09944263661513754;0.009919620060930483;140.0;0.19221454225019885;0.08708046043859119;0.007606339889987721;140.0;0.17947858434782513;0.0860755669208853;0.007432813314023828;137.0;0.1809652131218053;0.08666558937943554;0.007534732723770065;136.0;0.18171365600350423;0.0894500054177718;0.008025936524126748;134.0;0.18452188218660928;0.09531536099391089;0.009111987493936428;132.0;0.1889151436656804;0.10716907147913012;0.011519280726438805;139.0;0.19687903763139097;0.1100829202268706;0.01215642690127917;144.0;0.19988117217818593;0.08725091869143735;0.00763602848010665;141.0;0.1780801891518333
0.10878756613162172;0.011873575730246512;153.0;0.2044738531798065;12.0;0.09723378158564752;0.009485365128346525;149.0;0.19519238631382183;0.08853894967839122;0.007864163598015167;145.0;0.1886097727711677;0.08340877588446957;0.0069790782553415375;143.0;0.18474084955857148;0.0813159585742637;0.00663336344279592;145.0;0.18251007658872098;0.07871776660619986;0.006216032880857184;147.0;0.18102294240046016;0.07637602183064922;0.005852181680876371;149.0;0.17964314361246356;0.1492834276509;0.022358398644761867;160.0;0.22853505708560953;0.08347497565336558;0.006990673367171934;149.0;0.18458695654670948;0.0881587387418666;0.007797234094619782;152.0;0.1868956879201278;0.09310835167885795;0.008697475439251317;156.0;0.18901927875730806;0.09866884090025196;0.009767366267091989;152.0;0.19178647821173966;0.10999256524610783;0.01213780959183039;153.0;0.19825474945597676;0.12293452260425282;0.01516187234808927;158.0;0.2071233352474639;0.1326490108040676;0.017652872237445178;151.0;0.21459562620046574;0.08033510391300952;0.006474668048926302;149.0;0.18183879369576947;0.09022604849921363;0.008164391808605525;165.0;0.18490322370377485;0.09087060480837852;0.008281102654718571;167.0;0.18272468143152065;0.0919798195925214;0.00848637127250941;168.0;0.18256080957052287;0.09091249257886776;0.008290335173879011;165.0;0.18127273899280733;0.08955410490658082;0.008044365285746941;166.0;0.17999948852664827;0.0883508850410323;0.007831043782721672;159.0;0.17901305346585014;0.08729528239407429;0.007644495929004153;163.0;0.1775157996135082;0.09479233939229038;0.009013584926513994;160.0;0.19068620276496673;0.09533732512022763;0.009118794815481994;156.0;0.18145975157435387;0.09346522744057738;0.008764125602938896;154.0;0.18149452715005826;0.09186109836129379;0.008465715334749633;155.0;0.1818725999326266;0.09072933029044315;0.008258352293133386;155.0;0.18333518931190904;0.0922343049187194;0.008533234195626611;158.0;0.18754011216419544;0.10016542342829163;0.010062202489182749;165.0;0.1972701741784272;0.1019558844218254;0.010422850733553613;165.0;0.19961773248141257;0.09592321368798044;0.009230663123473992;149.0;0.18124989725865986
0.09646411963669173;0.00933550361820268;153.0;0.19004115330296315;12.0;0.08698002972613929;0.007589719909165126;151.0;0.17887140037587354;0.08315510612430427;0.006936699910926186;151.0;0.17377637582798933;0.08089082177925322;0.006564551134810376;154.0;0.17175886291212178;0.07862124208116872;0.006200978794255991;155.0;0.1694891271670399;0.07627682178816338;0.005837089109218576;154.0;0.16752758629371373;0.0744891724611275;0.005566686031314702;156.0;0.16620956286087624;0.12216603458582605;0.01497303409390138;162.0;0.20962011699424615;0.07283400215838179;0.005322054369089633;156.0;0.16646328336076616;0.07497390523434665;0.005639355697476271;163.0;0.1681841330949583;0.07774041337344187;0.006063265269192109;167.0;0.16896407683568396;0.08156304209294418;0.006674261173892901;171.0;0.1710724350305681;0.08990730323565772;0.008109686589037284;172.0;0.17697693083810137;0.09847603628393399;0.009728988031290535;166.0;0.1850549745158424;0.10626094332745796;0.011328288095849839;162.0;0.1926867014096515;0.07212109167214802;0.005218405952212484;153.0;0.16499425803616574;0.09062996895627533;0.008239330694227233;160.0;0.17669276206564039;0.08656760000082658;0.007516544389569344;167.0;0.17263087181401982;0.08406349280706696;0.007088464367866253;166.0;0.17135022397367164;0.08078984036207179;0.0065467028765440905;165.0;0.1696203876969544;0.07830707027726745;0.006150911988568301;166.0;0.16774920765078477;0.07650929447648468;0.0058722614682973516;163.0;0.16653948743311942;0.07541445824834671;0.0057046654814332035;165.0;0.16627241144787794;0.09223936260218953;0.008535152564539765;162.0;0.17949445212154302;0.08024322902747935;0.006459952465578024;158.0;0.16952310461065487;0.07881902296066551;0.006232631166462072;157.0;0.16983515048036038;0.07777615959516973;0.006068802692090052;159.0;0.17142139067737877;0.078817101872395;0.006232065888384781;158.0;0.17394278765009266;0.08382728211437884;0.007048855918897268;156.0;0.18019112942144364;0.09795264446185767;0.009625445460806223;161.0;0.18940477464043892;0.10471760057758213;0.011000659185441724;160.0;0.19078657333328228;0.08194949059505229;0.006737469484745204;151.0;0.16816610198610263
0.07578177062629482;0.005761371906966806;141.0;0.14420868906620396;12.0;0.06666915367666457;0.004458660144192165;149.0;0.13541438270162748;0.0640437480731138;0.004114108159815737;153.0;0.13328999332320973;0.06206998798878829;0.0038637696872707754;157.0;0.13295079388756695;0.059515685728755166;0.003552373555441043;155.0;0.13172551346501327;0.05722468241202419;0.0032837841676828378;155.0;0.13039171754665946;0.055440755243036655;0.003081942245589892;153.0;0.1295275186662936;0.09811104822034548;0.00965726901690424;148.0;0.16279269146335046;0.05422541749080729;0.002949185560188964;151.0;0.12828026696065353;0.055685346832545245;0.00310919355036584;164.0;0.129906429649382;0.05837587302416315;0.003416572162707093;168.0;0.13060250662302064;0.0618672770928708;0.003837921182520618;172.0;0.13253837796292411;0.07022952759908481;0.004944260935504807;170.0;0.13792722706047003;0.07740247992690077;0.006007861656859614;161.0;0.14329392453553855;0.08409358004936444;0.00709210098600216;155.0;0.1473318723410984;0.054454558225287435;0.0029736050071029778;147.0;0.126661479558306;0.0842302839764952;0.007115565853594086;152.0;0.15767422276189266;0.08150137010530405;0.0066611929816049855;157.0;0.1540335273780334;0.07931885320885225;0.006310162357889904;152.0;0.15202339634826073;0.07729617112915756;0.005993304813939027;154.0;0.1503638337682654;0.07446180473950537;0.005561097137870294;153.0;0.14808552065739602;0.07150323901606284;0.005128345686743129;153.0;0.14706978923216255;0.06951426039204853;0.0048469628243299765;157.0;0.14657168442362345;0.08412943389204643;0.007097773105373066;150.0;0.15927734258182974;0.06505667789751625;0.0042452234841912125;147.0;0.1469294106153484;0.06412893112851763;0.004125039976857499;147.0;0.14803504195138054;0.06385644867321796;0.0040892343676414205;148.0;0.149864460383702;0.06572725878630988;0.004332151568839833;146.0;0.15255826666452826;0.0706490470320248;0.00500454920374262;144.0;0.15832818208883803;0.08341690793200696;0.00697608833492929;153.0;0.1664298106285267;0.08920620334474275;0.007981562226220297;154.0;0.16613920023350795;0.06572323321849158;0.004332400455282523;149.0;0.14459236458935992
0.06213596427523314;0.0038686302499577737;141.0;0.12356908116743012;12.0;0.055939967508387256;0.0031361621922677556;146.0;0.11794105849781018;0.05146736687616781;0.0026557987259856995;147.0;0.11426264360297751;0.048377316632791496;0.002346696078817302;150.0;0.11151964211093816;0.04641090990731529;0.0021600695132466255;144.0;0.11087733751665833;0.045017866671298534;0.0020327281380299014;147.0;0.10978467641249438;0.04421046672423911;0.001960067829609211;147.0;0.10968792735500757;0.06948398282854075;0.004837389381190868;142.0;0.1310347551271817;0.04870558633212211;0.0023800785498831567;135.0;0.11445175389610068;0.04824144645988311;0.0023346833598519023;138.0;0.11620549639410879;0.050564267674887836;0.0025644642704483753;144.0;0.11811896858182828;0.053792481933959066;0.002902220386055546;147.0;0.12173952526092151;0.060884163275293474;0.003717301911027233;142.0;0.12829695122877996;0.06813071711271251;0.0046539671855411;140.0;0.13194330078045338;0.07100987627935501;0.0050533964792907615;141.0;0.13232231782287895;0.04626670916637394;0.002147470246855984;133.0;0.11076715480354934;0.07642126567123939;0.005859037056521712;158.0;0.14945404799666567;0.07779507423757102;0.006070957707464667;156.0;0.14876188815086616;0.07910316298761821;0.006276576768806092;152.0;0.14909152879003515;0.07890210912391943;0.0062450557521854366;155.0;0.1485352623913423;0.07733437820855697;0.005999413168749151;155.0;0.14783241808279796;0.07478939268289451;0.005610664303213666;153.0;0.14706709440273866;0.07271340361374441;0.005303661302487707;159.0;0.14621197344338033;0.07780989769822043;0.006073279841362383;163.0;0.15129267574016037;0.0644314836510735;0.004163776099034587;146.0;0.14436180345929536;0.06315878632892294;0.0040014540076462515;148.0;0.14347013837335926;0.0629602059192486;0.003976511779141212;149.0;0.14352915394331395;0.06402172217679519;0.004111519223339737;149.0;0.14501220189002154;0.0665172614892252;0.004437976687605538;155.0;0.1478320788542006;0.07358178170503005;0.005430841750292511;154.0;0.1545122605279035;0.07485874786514676;0.005621059132345325;157.0;0.15447622349494125;0.06885975023097139;0.004756748682603835;153.0;0.1448936852538716
0.08918371504400886;0.007979597250083613;151.0;0.15323353460430797;12.0;0.0792349336144259;0.006298111688339615;148.0;0.14529431358207745;0.07291159920044527;0.005333061315191192;149.0;0.1399775837576697;0.06772090059190199;0.00460094806647799;151.0;0.13621207911623684;0.06446666561476405;0.0041694007308234774;149.0;0.13464395288772205;0.062332749553928736;0.0038978940822548915;147.0;0.13343368303068692;0.06127260234328471;0.003766270418675005;148.0;0.1329797299959315;0.10298571028104207;0.010640293447080453;146.0;0.16461089921983732;0.07004634947500993;0.004922487030230826;145.0;0.13928378832909932;0.07034569729296095;0.004964696188619724;138.0;0.14111305646281166;0.07536260502648899;0.005698096166884306;145.0;0.14322933243114908;0.08183050437748057;0.006718059796841161;147.0;0.14688164542080293;0.09238605112125378;0.008562540911313312;139.0;0.15355442256554808;0.10248887986258522;0.010538213932984078;133.0;0.1605496981129128;0.1061827397371944;0.011311236717725744;136.0;0.16382485544141537;0.06469588895890416;0.00419925649434993;142.0;0.1346521107200813;0.0818430536731811;0.0067159267949215735;164.0;0.16754748996307983;0.08089859912882899;0.006564034796329383;163.0;0.16587493674919557;0.08093995600266793;0.006571874331742016;158.0;0.16558778963003112;0.0800899550207735;0.006434616117342278;159.0;0.16506878384477644;0.07886286349030303;0.006239238498809454;161.0;0.16405418031801686;0.07742319558695596;0.006012799573519766;161.0;0.162963565772664;0.07636635991429383;0.005850404617084586;166.0;0.16245341074120118;0.08521494934860217;0.0072800570815090065;164.0;0.1717388007934128;0.07127502563593587;0.005095094536582205;157.0;0.16334539888075617;0.07089600481045745;0.005041310892979265;156.0;0.16244340091395204;0.07069939757103368;0.005013241812387425;160.0;0.16121397978233065;0.07201199527239609;0.005199078903851163;164.0;0.1627729142990553;0.07490461412937251;0.005623655941879156;166.0;0.1669916851667758;0.08312703522147763;0.006925277230821331;156.0;0.17666488418546966;0.08636033503518074;0.007472245303072041;154.0;0.17747555093337275;0.07507903773720162;0.005654234906730615;155.0;0.16244833179405238
0.08703618535293495;0.007598860230381733;140.0;0.16352911091598585;12.0;0.08043560250416014;0.0064906440542461105;140.0;0.15609013283420703;0.07529960323034993;0.005688518976585707;141.0;0.15163318043265067;0.07145395249629816;0.005122186068693684;137.0;0.14798712682295448;0.06914027833033486;0.00479571099570444;140.0;0.14607908419715554;0.0664851704652605;0.004434139567643968;138.0;0.14519551135523884;0.06425366337815626;0.004141284304836659;141.0;0.14497426602614424;0.10528169814443103;0.01111825116606078;147.0;0.18390062024574425;0.07144034046639983;0.005120048861560291;145.0;0.1537752439726789;0.07223616063144651;0.005233541182738237;140.0;0.15506459159297475;0.07606714813128246;0.005802795967879329;142.0;0.1562841930379215;0.08141794692358909;0.006647803546966646;141.0;0.15836742831781528;0.0902892060587664;0.008176708935572647;147.0;0.16331116887812744;0.09892585934826481;0.009816156761459761;134.0;0.17103836804638156;0.10260103342031447;0.010557492209170799;139.0;0.17623882455865544;0.06560033588432614;0.004317334819660969;147.0;0.15018562120666298;0.09149776358208818;0.00839294217858542;173.0;0.18005883902976097;0.08858730924000446;0.007867656520449748;173.0;0.17683236736606783;0.08753022872472323;0.007680909535277604;167.0;0.1763820553636729;0.0859011460761852;0.00739899379095037;167.0;0.1747451663061648;0.0844444441847711;0.007151517574247677;167.0;0.17325333822126587;0.08327647504289329;0.006955769730284124;168.0;0.17181973178673174;0.08257931076730758;0.006840675545666819;170.0;0.17138684328420933;0.09758099362342991;0.009544164081334875;170.0;0.1880322201790045;0.08234872810454444;0.006801884491193798;170.0;0.17294420450112746;0.0833852545195749;0.006974052537646142;167.0;0.17442329496592768;0.08305476377475705;0.006918241000861767;167.0;0.1738597507040445;0.08440627367398218;0.007145186680024469;173.0;0.17568687391904472;0.08750493787499226;0.007679607793462433;167.0;0.1809539806399595;0.0954529064283403;0.009134583592292016;162.0;0.1927520491012572;0.1007742799251208;0.010180643450203242;160.0;0.19389217462248218;0.08467024874037138;0.007191583240448373;163.0;0.17271266487259768
0.09544768382015827;0.009133409193428291;133.0;0.17764122227957024;12.0;0.09177227597417907;0.008442245052173836;140.0;0.1707198257611631;0.08668372209258116;0.0075327052613224435;144.0;0.16580390954367036;0.08213638724495119;0.006760525381643868;137.0;0.16155982303035216;0.0789961026070684;0.0062524015579232955;137.0;0.1589743476779093;0.07511680851513118;0.005653294743873476;140.0;0.15673241759004033;0.07154119682654002;0.005130274214633749;143.0;0.15551511022147593;0.11658918421187466;0.013631498626607492;139.0;0.196126524647409;0.06696167767840251;0.004496633563844569;144.0;0.15774015498235622;0.06988567888754067;0.004897558594469061;136.0;0.15868573742242031;0.0743710385876064;0.005544239406520613;137.0;0.16115580945792107;0.08031326358214916;0.006465243987119898;134.0;0.1651770017536482;0.09090156143918562;0.008284919733705291;145.0;0.17153999532584538;0.10114672035540954;0.010256311462917972;135.0;0.18027621523137105;0.10598138970338765;0.011263908909645499;142.0;0.18603981358214997;0.06903618466318182;0.0047754372892070485;140.0;0.157569763605373;0.09476290225596971;0.008979979639096261;167.0;0.17155255254934615;0.09016586451442003;0.008135019411706084;169.0;0.1664956793283505;0.08833476037776583;0.007811154216799046;166.0;0.16556513035309284;0.08548590008608796;0.00731688306174692;166.0;0.16336476814933704;0.08360654675682712;0.006998293938684003;167.0;0.1624227779087934;0.08227878646189027;0.006775179836348065;171.0;0.16123066601443803;0.08183128996120353;0.006701316324732892;170.0;0.16177503521858988;0.10314247169368257;0.01064857097957721;174.0;0.1803871156222035;0.08535296439090116;0.007287207602014932;174.0;0.1657258708518273;0.0862299579389951;0.0074390391712785735;172.0;0.16791887774537606;0.08650771787247764;0.00748453987604848;173.0;0.16992162008586512;0.08855505543897575;0.007841544574101479;177.0;0.17257853253613342;0.09443263742920664;0.00891637696399351;171.0;0.1793541935818977;0.10484580520734008;0.010981265920458958;162.0;0.19238913424195703;0.1090482901071261;0.011887494510371823;159.0;0.19286819004998126;0.08645960682728893;0.007476148599009201;169.0;0.16615914362796813
0.13051500691475648;0.017071245566455097;136.0;0.21111813932613355;12.0;0.12341451051590567;0.015258730579883141;143.0;0.2008737786294706;0.11563001241159239;0.013399702390973945;153.0;0.19241860524819582;0.10891247033629163;0.011889172633540019;153.0;0.18707466726893232;0.10345779768374229;0.01073056315689977;152.0;0.18305896660804521;0.09622132722465519;0.009282124580138424;153.0;0.17879497999371669;0.08946289587407384;0.008026590187409982;151.0;0.1750754027312267;0.15946664041975375;0.025495083303615357;136.0;0.23211571732517902;0.08545442414849035;0.007323467506949072;151.0;0.17604046364975665;0.08654678169766088;0.007513148306916434;145.0;0.17699182163284896;0.09192750081867397;0.008475962537578777;142.0;0.1807725198778632;0.09997491252390388;0.010024089212459291;138.0;0.18751671448495316;0.11314883299517266;0.012838163489753342;136.0;0.19698432522166673;0.12647524748281827;0.016037111418609563;134.0;0.20813364939168658;0.1355629775639058;0.018424257800814484;134.0;0.21535890447005315;0.09155874215874504;0.008408313790784345;138.0;0.1756234916018523;0.09373340551425909;0.008814666886909855;142.0;0.17833611792784024;0.08965947644546517;0.008065182959676018;147.0;0.1741307662723168;0.08851303435946621;0.00786024443864532;151.0;0.17313390285851368;0.08623003090056389;0.007459726754787098;151.0;0.1716045649480193;0.08431482621113978;0.0071315164769319385;152.0;0.17051217314981337;0.08285379426638234;0.006886724777153758;155.0;0.16976570240231856;0.08201353386231068;0.006747381709012844;154.0;0.16943792650683592;0.09983673261804266;0.009999993274472003;150.0;0.1844238404574991;0.08498689864538501;0.007243719286515555;162.0;0.17199452092950554;0.08635710746053313;0.007480178146694223;161.0;0.17351047934655567;0.08731416957048532;0.007646922514421512;165.0;0.17481507407037059;0.09025493530893017;0.008172299751390395;165.0;0.17742536181357083;0.09710595945155898;0.009459867821847618;164.0;0.18378150724638737;0.10895666894946578;0.011910403642495588;158.0;0.1939232935426586;0.11114135131389179;0.012392495787818049;155.0;0.19386514213861647;0.08206758579562638;0.006753279907513336;158.0;0.16794016154336777
0.1417465007290665;0.020135260415610527;161.0;0.22319880247504661;12.0;0.13142715711550118;0.01730757805486412;154.0;0.21249746682795154;0.12367813720379518;0.015319437255826277;158.0;0.205961698655034;0.11876152462200756;0.014124753490195478;159.0;0.20316617351174338;0.11459030472901979;0.013146132573963257;160.0;0.20023796113873973;0.10859863372434107;0.011810687065250233;157.0;0.19658329045122427;0.10187895544805425;0.010396261162783868;155.0;0.19310240194973546;0.17434793194510803;0.03046591573176149;158.0;0.24561532043340867;0.1013136053343202;0.010296701550287005;150.0;0.19916570442973539;0.09934720921518875;0.00989933831860869;150.0;0.19909245967308037;0.10277160017408135;0.01059305388523246;147.0;0.20123320235595785;0.1076008374647455;0.011610595074778421;150.0;0.20491914796107452;0.11771546857525957;0.013895626395382077;151.0;0.21346954491932255;0.13063259034048616;0.01710536401211594;153.0;0.22349764800355548;0.14380734482145274;0.020730955511073963;150.0;0.23161341835081328;0.10261163274029582;0.01055817292578798;138.0;0.19734395477135108;0.10134347890275275;0.010304156244151918;148.0;0.19719107265269406;0.09906389732529258;0.009845464043183363;149.0;0.19486412683670576;0.09862459404343062;0.009757997942719273;152.0;0.19414686470882267;0.09741124748338736;0.009519746663679546;153.0;0.19309831730672145;0.09619450625294128;0.009283511441777302;152.0;0.19196885213564713;0.09517028412185166;0.009086360171814517;153.0;0.1912363088041998;0.09432099894534353;0.008923847739992415;152.0;0.19017988325239027;0.10729527753876522;0.011550554807175276;147.0;0.20096660610962577;0.09274809923549893;0.008630342346811789;162.0;0.18979384978378538;0.09390757019251124;0.008847694572980867;165.0;0.1909355950521801;0.09543651615296038;0.009138227680697388;166.0;0.19158350430365353;0.09834378282094675;0.009703052218772185;166.0;0.19332076190469072;0.10362951584283767;0.01077454489435131;162.0;0.197274129377309;0.11333595448710139;0.01288635180222303;163.0;0.20227284746371593;0.11504247195914838;0.013278433389241347;165.0;0.20369092549625092;0.09143918620702303;0.008388524141030574;165.0;0.18697836643467144
0.1702265093329221;0.029070407093347905;169.0;0.22979919997468576;12.0;0.1587062271754784;0.02526660541122592;159.0;0.22038269056291704;0.14940546791613007;0.022390062776761335;166.0;0.21439820270701512;0.13946730049521988;0.01950858481528107;163.0;0.21044943673789346;0.13277208122072054;0.017677182205925863;164.0;0.20661697974697557;0.12744614991549552;0.016287060360586306;163.0;0.20348017682168779;0.12149191324900388;0.014801867705682138;162.0;0.20042845667690612;0.1936662755947448;0.03762572783855173;161.0;0.24669363277699272;0.11499879464515841;0.013262186791932504;153.0;0.1992125935070737;0.11841427435438338;0.014062820789645882;152.0;0.20203073617454118;0.12608034085276204;0.01594299871009574;158.0;0.20554305636134085;0.1344117524964356;0.018121070047840984;159.0;0.20986162143751452;0.14904797938451342;0.022283402962923467;159.0;0.2192543007859494;0.1664685209954441;0.027796833509618344;165.0;0.23027917066426254;0.18145866449541717;0.03303040355693723;165.0;0.24045775175147674;0.11079097312499622;0.012312409172154377;148.0;0.1957652271937688;0.10684816389006789;0.011449798135309122;157.0;0.1980103645013643;0.10185976142230227;0.010402175277802158;151.0;0.1947020193011289;0.09982574914465925;0.009992122709450624;152.0;0.1936598318998652;0.09758754555666124;0.009546211639838598;150.0;0.19270268840529597;0.09598091210444375;0.009233971103569761;151.0;0.19201909999062855;0.09467706021540638;0.008985860564548635;156.0;0.19147034283453904;0.0938256327332364;0.008820955252882807;155.0;0.19044191250178236;0.1155999550316651;0.013396045476008414;150.0;0.20236501090658562;0.0901278507816889;0.008134492924333946;160.0;0.18850385713036988;0.09083307133457745;0.008264525174812836;166.0;0.18886677986449546;0.09399845816175115;0.008854659662747219;165.0;0.1906369545127898;0.09821351758426002;0.009666918582554107;162.0;0.19286279483161886;0.10471822939384513;0.010993705386013197;153.0;0.1976123365472081;0.11594475689742917;0.01347808207514738;154.0;0.20456796908472344;0.12293679258975727;0.015153856360538124;155.0;0.21010306549797525;0.0934791329199734;0.0087440545388561;167.0;0.1890730766318417
0.1717905495643464;0.029606925167465124;163.0;0.23075758151657036;12.0;0.1618234169513409;0.02627220060650807;159.0;0.22150481661621352;0.15377021644359506;0.023722525738955773;167.0;0.21370385523491228;0.14332045486198003;0.020607765989352603;164.0;0.20806211699010352;0.13614365267428571;0.01859562317365681;162.0;0.20347126811376193;0.12999726799014272;0.016954430529193383;164.0;0.1997560539220791;0.12317606345637105;0.01522188131430558;164.0;0.19689223497848835;0.19101911676003522;0.03659601412732442;160.0;0.24690253927708466;0.11290691795502422;0.01278835010604864;161.0;0.1943549894989067;0.11934389805661434;0.014289581655834405;155.0;0.19872415140177824;0.12941616143699894;0.016803383410845914;158.0;0.2047269857948678;0.13957547608396176;0.019545256328805254;158.0;0.21096930840681033;0.15486817943030645;0.024062757928469725;156.0;0.22123597517485127;0.17130000512064816;0.029438060332809997;164.0;0.2316828893489958;0.18482744935180387;0.034267907986044906;168.0;0.2409341051254516;0.11118986777788425;0.01240305018197105;158.0;0.19126328781968796;0.103990806778923;0.010845093837800267;152.0;0.19001841531376887;0.09852307854373316;0.00973590719068667;151.0;0.1860000350764452;0.09586620385609783;0.009216177515789821;155.0;0.18491932749159018;0.09261541845381178;0.008602951565167308;152.0;0.18399680388420983;0.09020010989653922;0.008160241144133749;156.0;0.1831529861522815;0.08802323082672438;0.007770825396092821;159.0;0.18326017236108808;0.08655146198612036;0.007513902777883501;159.0;0.1818546410840625;0.11097402504016364;0.012351340619434664;151.0;0.1931793054776492;0.0824022490470613;0.006807152517850341;157.0;0.18019760567163481;0.08306909851753115;0.006919695666374041;159.0;0.18082786035223003;0.0852836512116141;0.007293699613650902;156.0;0.18211863143434157;0.08980438982579242;0.008087520106208097;149.0;0.185290978964615;0.09764293962305808;0.009561545432828014;145.0;0.19168177337184839;0.11029662405148437;0.012199128670816285;146.0;0.20187926054985797;0.1164122804706798;0.013591539023323908;149.0;0.2049810690652787;0.08108391494217465;0.006592972707904224;163.0;0.17764353929938506
0.13770827221785364;0.01902537967214572;165.0;0.20742271901744766;12.0;0.13097317193585667;0.017209359461166085;157.0;0.19937352804832073;0.12439462748776947;0.015523304826500727;153.0;0.19270508802503958;0.11681746587656117;0.013689130683244885;154.0;0.18775389476047882;0.10992984083994398;0.01211863984144173;150.0;0.18464184753354093;0.10408155319427598;0.010859792621116155;146.0;0.18204023852847614;0.0984044599487169;0.009706774645278636;147.0;0.18054994613123754;0.15626005526436004;0.02449670735698944;168.0;0.22573801771486332;0.09151312059548898;0.008398671006002547;161.0;0.18291246384800505;0.09494163248362053;0.00904010037118098;159.0;0.18567005398790049;0.10228582367465158;0.010492487344026438;155.0;0.19015150403705663;0.10816935188868848;0.01173650702075364;156.0;0.19369953679156307;0.1174331181899851;0.013834727776243347;162.0;0.20116733169151899;0.12825250362032664;0.016501885686168134;166.0;0.20966238177692317;0.14048700454246082;0.019801080130077732;170.0;0.21731517107516996;0.09253020546866104;0.00858655607981924;150.0;0.18192068954460064;0.09554675388272323;0.009155623839988495;147.0;0.1845839036513116;0.09042461420728215;0.008199315478132725;147.0;0.18114269139503333;0.08806416539820396;0.00777790811785001;150.0;0.180082858958891;0.08579291102500552;0.007382342836044453;150.0;0.17990719186613738;0.08430241134836676;0.007127581622736519;151.0;0.17918488294702395;0.08271754990950951;0.00686185541774879;156.0;0.17947632106929767;0.08158205532668947;0.006675389143120218;157.0;0.17873479354155009;0.10362759172733373;0.010770413225944025;150.0;0.18709550003150016;0.07930959457308093;0.006310340860709669;151.0;0.17942606114065776;0.08037809539149138;0.006481054912034201;151.0;0.18092928932518665;0.08130282441501477;0.006629743493110921;149.0;0.18108258517828998;0.08433024244715999;0.007133203267240683;149.0;0.18327500998713434;0.09145615431482809;0.00838607477261084;145.0;0.18906059898468477;0.10337226489104602;0.010714025780240723;142.0;0.2000693566306354;0.10552326607113335;0.011167236376069884;149.0;0.19956615245502854;0.0729867079290794;0.00534378213797376;151.0;0.17501407416624581
0.09905582854680949;0.009840909541023813;176.0;0.15496072498111738;12.0;0.09652856200380704;0.009348216173615897;166.0;0.14962902894083124;0.08970699812062478;0.008073646236826533;158.0;0.14486383018476268;0.08211606379012348;0.006764611365452878;155.0;0.1399826228525004;0.07444771017169728;0.005559896656563501;153.0;0.13728348894109818;0.06915509069586505;0.00479731484411938;151.0;0.13563157533968018;0.06572674434810842;0.004333199848387099;155.0;0.13470707570151713;0.10808685408195033;0.011704818977211245;182.0;0.16682581981003844;0.0629077135168143;0.003970132224974699;165.0;0.13460711595147762;0.06405656335398034;0.004114847937379224;167.0;0.13792176822798496;0.06801417180318621;0.004638537921859651;163.0;0.14049094983716434;0.07108077492294479;0.005066604916383274;160.0;0.14319560465434003;0.07661123719541148;0.005883296946578108;166.0;0.14823919163674604;0.08435523300809436;0.007132494553760794;165.0;0.15538856652691138;0.09361812401260758;0.008782824591540386;172.0;0.160624869423233;0.062043478277865036;0.003861967343960078;155.0;0.13375734944837758;0.09630151669834996;0.00930421707400995;160.0;0.17935509025486088;0.08778194005373163;0.007730308392336041;162.0;0.17682400922807218;0.0836153876067922;0.007012969619418243;160.0;0.17513075916585324;0.08186565590135352;0.006722306818877572;161.0;0.17438372467505014;0.08141761844909025;0.006649279684087585;162.0;0.17390584054457198;0.08112052322254677;0.006600931630575821;169.0;0.1736339942529789;0.08111130752056953;0.006599594267647624;169.0;0.1729999659370316;0.10784765699423965;0.011669193537254237;155.0;0.18393299989199402;0.0969520216457566;0.00942930174898707;160.0;0.17940489938638268;0.09600929222762845;0.009247478892017632;163.0;0.17997329718979507;0.09571565350915387;0.009191425947761844;161.0;0.17961924677973115;0.09766566254232534;0.009569753861967597;161.0;0.1806536690910749;0.10424358973142199;0.010901508579002461;153.0;0.18613396897063617;0.11846127134540088;0.014075785106676526;153.0;0.19711174007445398;0.1228587445046173;0.01514239769106873;157.0;0.19546722097098368;0.09934618043632959;0.009899485024153758;156.0;0.17816355533913852
0.04264001354869826;0.0018207082399114202;161.0;0.1110683135213656;12.0;0.04294503779040862;0.0018471520096883653;159.0;0.10858196999700084;0.04093279623747264;0.0016767685183195103;154.0;0.10670033339319576;0.03850811443831669;0.0014845292039421944;148.0;0.10330035986476382;0.03638517231082578;0.0013237703704187366;145.0;0.10166238406927397;0.035922626693261184;0.0012912646116364673;151.0;0.10118857706932674;0.035684134335744085;0.0012740703328275188;161.0;0.09955979400093841;0.04668596753681721;0.0021815732457354255;169.0;0.11400012970002882;0.03341122296362293;0.0011184473684538432;152.0;0.10197354364062593;0.032894936394154604;0.001083614965377422;151.0;0.10333336804329951;0.03382494047737714;0.0011455789343157669;153.0;0.10426305073172056;0.035893452974508994;0.0012898647137182433;152.0;0.10662904438485632;0.03968007258076038;0.0015772976590126353;152.0;0.11152601096721577;0.043266735296778686;0.0018752406604066838;147.0;0.11533509446990309;0.044711337622334944;0.002003283592474934;153.0;0.11589347701213497;0.03458300903478042;0.0011990393822075376;149.0;0.10124082731670175;0.10296609754999975;0.010634756106051918;169.0;0.1745461908424527;0.09499286638674213;0.009050133450845821;168.0;0.17200241750678202;0.09115843173927525;0.008333636911146348;167.0;0.17067693795585814;0.08874965471084964;0.00789926986272252;169.0;0.16925085101505324;0.08721819219985937;0.007628366280893071;170.0;0.16865619057673026;0.08619253613100616;0.007450636729918226;168.0;0.16837759197178684;0.08579014036253045;0.007381343070477597;172.0;0.16757874966074174;0.1155846836884933;0.01339923192339592;157.0;0.180921359734775;0.09883203436539385;0.009798141116663755;171.0;0.17297874360600557;0.09714757676135341;0.009466610929053041;170.0;0.1731252079831523;0.09631421726991413;0.009304827947986179;172.0;0.17307159822217472;0.09844958891025295;0.009720765548519217;172.0;0.17412438450364948;0.1045959789716129;0.010971155125553052;167.0;0.1798478259246407;0.11932024689013901;0.014279711775083566;168.0;0.18899909488266212;0.12891424918497185;0.016668564599270175;169.0;0.19021544669179327;0.10379947914316451;0.010807314318519357;166.0;0.1715942679663272
0.047041141538502244;0.002214735422111873;142.0;0.1286413341528547;12.0;0.04577787222891233;0.0020975887117512023;139.0;0.12353039697849519;0.04495062775195828;0.0020222115763893636;137.0;0.12123979984000845;0.043740468954184764;0.0019155168046589943;141.0;0.11916817339730215;0.04264832246609066;0.0018219311897094783;143.0;0.11743788307121437;0.0419095884871052;0.001760297695323738;144.0;0.11764483846814756;0.040614164032431566;0.0016536339703524534;151.0;0.11599686536700582;0.058405053464730794;0.0034184188287772316;155.0;0.13968061903361922;0.04494423839713399;0.002026253485551844;148.0;0.11892081572893777;0.04444911008638107;0.001981001481767185;144.0;0.11933818509651582;0.045052296251686205;0.0020349690538433328;143.0;0.12098916770087195;0.04647902720125042;0.002165704326834208;142.0;0.12326042110974224;0.04924132537305619;0.002431498371341973;138.0;0.12865891092389117;0.05226554913821241;0.0027391743096846733;132.0;0.1334202907445643;0.054205867784369505;0.0029458881395123156;133.0;0.13623316844007047;0.04505762336916525;0.002036617675069233;148.0;0.11900281619406511;0.10340835979676823;0.01071007429837505;150.0;0.17268199424433964;0.09461265383992348;0.008967063640964416;147.0;0.16731341573572647;0.09045500465960886;0.008196013902824331;149.0;0.1649916373150896;0.08709832763290204;0.007598008954700752;150.0;0.16298385603794807;0.08439223014490148;0.007134679387679659;150.0;0.16140586365633178;0.08195381201795415;0.006729168932844265;150.0;0.16028302894432309;0.08035817079727527;0.006470960395810158;152.0;0.15915207902770845;0.11313396410522515;0.012820752024276625;141.0;0.17989882399711;0.08147642586923685;0.006638019370916116;147.0;0.16043863812753706;0.08253749773729531;0.006817378170084108;143.0;0.16167494377448702;0.08516192750646427;0.007260039299008827;145.0;0.1630473288338735;0.09078134436312542;0.00825349900447917;144.0;0.16565907145645783;0.09947011237725657;0.009914470896156023;147.0;0.17231274398914884;0.1125509743204885;0.012697266543411204;149.0;0.1815149007146042;0.12343492917863971;0.015271865882457271;150.0;0.18718794743171818;0.08288043791122368;0.006859924970896933;143.0;0.15809275388649277
0.055851722959901415;0.0031234085868150313;139.0;0.14493588361102056;12.0;0.052504510194864316;0.0027629745813029204;133.0;0.1374740915365167;0.05113116685053831;0.0026198215861978533;134.0;0.1336468371084895;0.04980430516892415;0.002486412369999659;142.0;0.13140357741755956;0.048519125238463856;0.002360851610673443;147.0;0.1304269942045317;0.04575255555315475;0.0020996979052475273;145.0;0.13022859247578938;0.043092164254535256;0.0018628917162279075;148.0;0.1295226141349329;0.07064282470635368;0.004992508555937848;160.0;0.16303929129931966;0.05092755977833037;0.0026016626889987923;156.0;0.13180624928224588;0.050199437942937554;0.0025283032501449048;152.0;0.1325965642023423;0.051604143465507346;0.0026717833148179626;150.0;0.13377799464914214;0.05369759815654946;0.0028924366090912566;143.0;0.1372880569360174;0.05819588838757538;0.0033951056577763827;141.0;0.14435305023510447;0.0639162795306409;0.004089185649467645;135.0;0.15241086548066685;0.06882160350501344;0.004736681749790963;132.0;0.1575087409173396;0.05120472050130126;0.0026265675443331482;165.0;0.13370660150256;0.0898997206023935;0.008104998010066136;157.0;0.16774223899565846;0.08049344052616617;0.006497193430646981;154.0;0.16139757054819379;0.076273601744799;0.0058342241955503145;155.0;0.15849691418861186;0.07367277988240362;0.005444179556080713;155.0;0.15647913705339966;0.07168654134376776;0.0051544954617333385;157.0;0.15461913339016822;0.06944144687983128;0.004837291856026757;161.0;0.15309253611039983;0.06812119932613103;0.004655219703976379;159.0;0.15226641238395122;0.09946365262038345;0.00991868948870833;151.0;0.17517364710132438;0.0695008183520493;0.0048434622955986825;153.0;0.15507733491033895;0.07157357404924196;0.005136485157619686;151.0;0.15831204347313324;0.07528056259849294;0.0056817379271314585;148.0;0.16040127565865514;0.0814456811289155;0.00664927754661573;144.0;0.16384418374890752;0.09112868689013932;0.008323433040438448;152.0;0.17018791725039722;0.10290593767009572;0.010612195604997016;142.0;0.1798474217395423;0.11183118354312659;0.01253535982235562;145.0;0.18417368770343687;0.07018414931651663;0.004939683158001035;148.0;0.15262203549569162
0.11660976635468533;0.013636677737552515;145.0;0.18217874165196069;12.0;0.1122433081621431;0.012636275672146683;142.0;0.17393515266921938;0.10437978137372117;0.010928132240503161;142.0;0.1674240987961847;0.09310011415246551;0.008694422428617414;145.0;0.16260300805340858;0.08448940957678705;0.007160916429867165;146.0;0.16043784170593706;0.07825128245659325;0.006142753730878215;146.0;0.15946136554709217;0.07372571701320191;0.005452995033745914;150.0;0.1581087152597746;0.1256074236992179;0.015826339057542094;162.0;0.20151216737217534;0.0835755025125547;0.00700616033277949;146.0;0.16998076604250592;0.08234166678245886;0.006800753786138185;149.0;0.16876154714956612;0.08567512873470222;0.007362399213584248;150.0;0.1679243808271202;0.0904237077474589;0.008201329507084175;148.0;0.17100142642014507;0.10122894597432869;0.010280765336727218;156.0;0.17920608738967442;0.11124112585259512;0.012414616815429444;153.0;0.1871548483106132;0.12198853443508341;0.014928185914929589;149.0;0.19327188259582012;0.08185300257715254;0.006721015482538228;160.0;0.1636563951710117;0.07899840402163721;0.0062611384483086665;168.0;0.1707932143245848;0.07290323654535626;0.0053310483584687075;155.0;0.16625465959325073;0.07184728984239376;0.00517753416161708;155.0;0.1649546186350018;0.0712589943882423;0.005093628142829711;155.0;0.16449158878193876;0.07044604785626075;0.004978173937233623;155.0;0.16346597489488365;0.06900418418227738;0.004776255587815511;156.0;0.16304535001973505;0.06784697442827563;0.00461669211450841;160.0;0.16273643065673518;0.09230137514543996;0.00854729294140783;164.0;0.179069969939129;0.06769295514905217;0.0045972220595197795;170.0;0.16705178111762084;0.07095057578308027;0.005050409440019348;165.0;0.17130374707228865;0.07304962398273031;0.005353678647421792;162.0;0.1732165360705642;0.07680970275117878;0.005918973088202637;159.0;0.17560168369934565;0.08468505787504406;0.007194558595008366;165.0;0.18037312749771978;0.0978515677657321;0.009605141764648136;156.0;0.19043483098261016;0.10523805868881234;0.011108771742554218;157.0;0.1923777043505512;0.06613357749063681;0.0043879518135564516;157.0;0.16297545542391453
0.13717792573895735;0.018869254156406386;163.0;0.1974934173593939;12.0;0.13738547187865527;0.01893086663020323;159.0;0.19022330209086585;0.13047002391776905;0.017074635447310735;156.0;0.1849828026443834;0.12100807157443086;0.014689352315485703;164.0;0.18178081699751172;0.11378404615990426;0.012986114635003258;160.0;0.18038192580757167;0.10649270284843815;0.011375073781065633;158.0;0.17937370838140168;0.09974775266168157;0.009978934572991158;158.0;0.17820557553052974;0.14705264249157599;0.021677074790377577;152.0;0.21272402043053001;0.10067449688929861;0.01016640964407117;148.0;0.18858285722724494;0.10028304740220668;0.010085442850703896;145.0;0.1865215232295062;0.10359131296127518;0.010760556885274797;143.0;0.18597259972165403;0.10795878473885409;0.011684323711648075;141.0;0.18806871589653115;0.11709490286199647;0.013744784876377475;149.0;0.19491588851418543;0.12586553715723015;0.015878138984786166;152.0;0.2010565474009043;0.13656024433040223;0.018692595703852493;151.0;0.20655926457909898;0.09664980825162736;0.009371633300107193;165.0;0.17983276419577093;0.07898607861473705;0.006258436779574421;160.0;0.17360004351108746;0.07423942375825711;0.005529119163154811;160.0;0.1690673853503935;0.07343022758760687;0.005409214482698315;160.0;0.16841993530204655;0.07226823652484261;0.005239681701309043;155.0;0.16779924827961742;0.07096613229530294;0.00505208819372173;152.0;0.16709773603480424;0.06921546886288316;0.004805719529658598;151.0;0.16594639312470244;0.06816785198930864;0.004661806570475278;152.0;0.16594735968001878;0.08860599014429058;0.007876733576548563;158.0;0.1815567262443678;0.07156919748335037;0.0051372281621112495;154.0;0.1729053205170221;0.07389202709343236;0.005476199075225164;148.0;0.17499315794999298;0.07514305996168588;0.005663352279632346;148.0;0.17535456778878322;0.07748326957180512;0.006021338120097285;144.0;0.17689758789028542;0.08396086775225747;0.007070494825635294;146.0;0.18139483618777216;0.09685051225969235;0.009408350708434812;150.0;0.19296028821757233;0.10115888131295499;0.010264985309895376;143.0;0.19470331736858257;0.06825978702654412;0.004673316709798032;141.0;0.16964680358572187
