rms_s1_ch1;var_s1_ch1;zcr_s1_ch1;wl_s1_ch1;rotule;rms_s1_ch2;var_s1_ch2;zcr_s1_ch2;wl_s1_ch2;rms_s1_ch3;var_s1_ch3;zcr_s1_ch3;wl_s1_ch3;rms_s1_ch4;var_s1_ch4;zcr_s1_ch4;wl_s1_ch4;rms_s1_ch5;var_s1_ch5;zcr_s1_ch5;wl_s1_ch5;rms_s1_ch6;var_s1_ch6;zcr_s1_ch6;wl_s1_ch6;rms_s1_ch7;var_s1_ch7;zcr_s1_ch7;wl_s1_ch7;rms_s1_ch8;var_s1_ch8;zcr_s1_ch8;wl_s1_ch8;rms_s1_ch9;var_s1_ch9;zcr_s1_ch9;wl_s1_ch9;rms_s1_ch10;var_s1_ch10;zcr_s1_ch10;wl_s1_ch10;rms_s1_ch11;var_s1_ch11;zcr_s1_ch11;wl_s1_ch11;rms_s1_ch12;var_s1_ch12;zcr_s1_ch12;wl_s1_ch12;rms_s1_ch13;var_s1_ch13;zcr_s1_ch13;wl_s1_ch13;rms_s1_ch14;var_s1_ch14;zcr_s1_ch14;wl_s1_ch14;rms_s1_ch15;var_s1_ch15;zcr_s1_ch15;wl_s1_ch15;rms_s1_ch16;var_s1_ch16;zcr_s1_ch16;wl_s1_ch16;rms_s2_ch1;var_s2_ch1;zcr_s2_ch1;wl_s2_ch1;rms_s2_ch2;var_s2_ch2;zcr_s2_ch2;wl_s2_ch2;rms_s2_ch3;var_s2_ch3;zcr_s2_ch3;wl_s2_ch3;rms_s2_ch4;var_s2_ch4;zcr_s2_ch4;wl_s2_ch4;rms_s2_ch5;var_s2_ch5;zcr_s2_ch5;wl_s2_ch5;rms_s2_ch6;var_s2_ch6;zcr_s2_ch6;wl_s2_ch6;rms_s2_ch7;var_s2_ch7;zcr_s2_ch7;wl_s2_ch7;rms_s2_ch8;var_s2_ch8;zcr_s2_ch8;wl_s2_ch8;rms_s2_ch9;var_s2_ch9;zcr_s2_ch9;wl_s2_ch9;rms_s2_ch10;var_s2_ch10;zcr_s2_ch10;wl_s2_ch10;rms_s2_ch11;var_s2_ch11;zcr_s2_ch11;wl_s2_ch11;rms_s2_ch12;var_s2_ch12;zcr_s2_ch12;wl_s2_ch12;rms_s2_ch13;var_s2_ch13;zcr_s2_ch13;wl_s2_ch13;rms_s2_ch14;var_s2_ch14;zcr_s2_ch14;wl_s2_ch14;rms_s2_ch15;var_s2_ch15;zcr_s2_ch15;wl_s2_ch15;rms_s2_ch16;var_s2_ch16;zcr_s2_ch16;wl_s2_ch16
0.062380367933910226;0.003904282622358674;153.0;0.135374920550733;12.0;0.06593956163851603;0.00436243652960778;149.0;0.1364209655326238;0.06467205383703434;0.004195774927850974;158.0;0.133816559579088;0.06490164194961542;0.004225055789213472;153.0;0.13168295513012335;0.06570029972260946;0.004329533411022683;149.0;0.13158153808223938;0.0630831851653629;0.003991646666511281;148.0;0.1287467597920716;0.059448337256535165;0.0035454458155379145;156.0;0.1243376154057412;0.05923065911921263;0.0035197738102532776;157.0;0.132910063802661;0.06371165442732697;0.004073474814266022;159.0;0.12269725663453422;0.06854443961220635;0.004714789974769687;163.0;0.12692923126109898;0.0774253437299477;0.006015413341632901;163.0;0.13524172275892077;0.08395184957842958;0.007071680074490416;159.0;0.14039879794607943;0.08073563656299511;0.006539942628953165;154.0;0.14007588769952267;0.07269458297311784;0.00530140381142936;161.0;0.13667110338757338;0.06382756632356316;0.004086927965991674;156.0;0.13443002131518497;0.05610100693190614;0.0031583323041098803;159.0;0.12068869329762964;0.1229635916055202;0.015169671644758277;158.0;0.21291383156859486;0.13667309488229282;0.018740679356360247;162.0;0.21823585613127716;0.14322396377531144;0.02057995597419817;168.0;0.21943860646066335;0.1486682235575425;0.02217441814110126;169.0;0.22079664751449035;0.15361080540199334;0.023672508008476905;169.0;0.22144945230432767;0.1439803503928496;0.020796685155374587;170.0;0.21690865944662338;0.1282414826865521;0.016499690552352782;170.0;0.20831966491901416;0.11482812055697543;0.013228464261841702;158.0;0.20868885091430084;0.10480503893136135;0.011018249294736144;165.0;0.19022935425404516;0.1062369067470806;0.011319904017543138;169.0;0.19061933867375755;0.10847611210140407;0.011800061598874128;166.0;0.19165835216649008;0.10948881004631225;0.012020659556649842;162.0;0.1922365212863493;0.11240653087910218;0.012669159631386102;161.0;0.19622524064460664;0.11661227861125736;0.013636150893578563;159.0;0.1987988298309546;0.1166190391969451;0.013641035594199769;161.0;0.19714573847751163;0.10396566371839526;0.010842136818943448;164.0;0.18853472837303414
0.11751249288178599;0.013854960398469802;138.0;0.19014621113742972;12.0;0.1210023056455477;0.014689276839047359;137.0;0.1935593148472847;0.11754551970910489;0.01386194357332562;146.0;0.19284036172717775;0.11753403169885962;0.013858447872926082;154.0;0.19120700605179416;0.11920765061678866;0.01425606292602956;150.0;0.1903632101507981;0.11260652638126818;0.012720815909538233;148.0;0.18515538662436468;0.10513540536397827;0.011089721764530274;143.0;0.17961943007540104;0.11251669930944255;0.012701183876259174;153.0;0.18744581708712638;0.11922147256749518;0.014259367373886311;153.0;0.1723476631340635;0.1211501640674033;0.014725157194472566;159.0;0.17574291110663387;0.12486067224814466;0.01564119545391586;164.0;0.18131231525218777;0.1272959304188389;0.016257045613348505;157.0;0.18537270877433337;0.12298340757278789;0.015174375500617752;150.0;0.18424766205583476;0.11536475746783884;0.013352613414393482;156.0;0.1831809563809603;0.11135341886420277;0.012440143366183248;158.0;0.18258765145431072;0.11122611511931953;0.012410119302190287;156.0;0.17025014910010788;0.16833077590870407;0.028422211596960612;163.0;0.23936579456668505;0.1840162447904579;0.03397135020434922;167.0;0.24362936955230444;0.19283158451420285;0.03730582236922126;170.0;0.24428838754703544;0.1988394020614588;0.03966639116634713;171.0;0.2460456938796406;0.20268016231277597;0.04121333312987968;171.0;0.2480862817861448;0.1893787858541344;0.035980743852288326;173.0;0.24169749614879546;0.16904095058701318;0.02866867789158202;175.0;0.23134999920958324;0.1568952728685436;0.02469581983798905;173.0;0.23485579664741496;0.14237165092594292;0.02033403098118314;161.0;0.21582289741069344;0.14486273975236152;0.021051393496149776;162.0;0.21594132090529392;0.1492621525592095;0.022348324248740465;156.0;0.21648357870401355;0.1545831605772141;0.02397225947319957;154.0;0.21829467859544363;0.16699680296077535;0.02797629931714526;148.0;0.22467498806593966;0.17469288413655173;0.03061385675599127;143.0;0.22847316004878224;0.17360687593235852;0.03023118701007262;152.0;0.22708039038533637;0.14084839742208774;0.01990190379026503;163.0;0.21476689673827787
0.14628821595666255;0.021470126026826446;138.0;0.2190660305352395;12.0;0.15371843873144586;0.02370656494397508;137.0;0.2238368943320814;0.15627010774363032;0.02450009784687909;140.0;0.2219352579637566;0.16253434544722425;0.026502193651632682;149.0;0.22097065358263362;0.16909173801040978;0.02868021102286215;151.0;0.22139854264673117;0.15727836422454977;0.024811637881336047;146.0;0.2145052407898418;0.14209526817774285;0.020248959401896728;143.0;0.20798158725781965;0.13939280679997035;0.01949252771504129;153.0;0.2105773135175753;0.15247762663221534;0.02331062508225912;143.0;0.20325573066805722;0.1517075257816509;0.023067321938502923;148.0;0.20279916542558665;0.14841913024752376;0.0220813715595736;150.0;0.20184905077419793;0.14348506628449983;0.02063898167302647;145.0;0.19977765235598108;0.13863854441851328;0.019272662928086205;145.0;0.19834334197191317;0.13581414057503338;0.018499896428017342;146.0;0.19964014971604097;0.13729395686869178;0.018908934405429716;148.0;0.20206546914957788;0.14403820342252538;0.020795100359190032;151.0;0.1998898735119032;0.18549422350701503;0.034521570480201935;166.0;0.2595536595709441;0.203625807531909;0.04160030053555341;170.0;0.2612731540101322;0.21151957220102258;0.04488754954783039;169.0;0.2618051876530505;0.21896094719718548;0.0481010344940219;162.0;0.2640000087885672;0.22467570185302677;0.05064437114460338;164.0;0.2679758775997105;0.21018475710572435;0.04432203317221357;167.0;0.26200826959882395;0.18501127880527396;0.034341098027014474;170.0;0.25143840391993405;0.16715261036189694;0.028031312026122555;171.0;0.253743561862505;0.1553573777686825;0.024214861694086712;172.0;0.23764378813392514;0.15876846019284901;0.025289753455435483;173.0;0.23804324418883072;0.16269039258608925;0.02655269924804024;167.0;0.23814134131714473;0.16667039717848023;0.027869127531714923;163.0;0.23936187527105243;0.17602020005622504;0.031079766058052016;158.0;0.2438154555283916;0.18359915924522063;0.0338125890216891;160.0;0.24655539207055638;0.1837885063604571;0.03388578093669681;168.0;0.24517398936466142;0.15399187527556424;0.02379050152206965;174.0;0.23770045727695932
0.19224808065635438;0.03708001937329983;154.0;0.2605551331568963;12.0;0.20578952261864894;0.04248540342201286;151.0;0.2658738895315638;0.2114477315731146;0.04483930295475127;156.0;0.263457941018112;0.2174833088775562;0.0474204932468342;148.0;0.26206118961311664;0.22380581518178688;0.05022229725090142;151.0;0.26349012888701834;0.20658999044713341;0.04280396417595231;151.0;0.25520273178714414;0.1879040447811051;0.035418922177112205;157.0;0.24628603215521888;0.18127669193004778;0.03296782612359218;162.0;0.24765066027591157;0.21888055439565016;0.04804065225677551;161.0;0.24070169488649978;0.21932151243636197;0.04824179384565536;160.0;0.24153152798284486;0.21104856004441808;0.0446760207047483;157.0;0.24163515160468596;0.19731571005932091;0.03905438498374172;158.0;0.2390393253927906;0.18651432544811614;0.03489502338046881;155.0;0.2375457766945817;0.18393332156810024;0.033937386961471736;153.0;0.24029290167677342;0.18538154861817227;0.03447444271846024;152.0;0.2434234253378634;0.2026417052991578;0.041191648626209165;166.0;0.23469451045104098;0.16085754004743108;0.025959798247420656;156.0;0.2517583808767029;0.18570233935056266;0.03459819540483958;160.0;0.2585100570099015;0.19664195438732593;0.03879182520679678;162.0;0.25991175124029053;0.20641956999328506;0.04274110556877094;153.0;0.26092160090141975;0.21280752123399674;0.04542781160475814;155.0;0.26113803677570113;0.1963307873820721;0.03866273125609123;158.0;0.25430079004983425;0.17025514953619716;0.029073193804934134;161.0;0.24493273785847106;0.14639047637659094;0.021500363995456958;154.0;0.24567605910668627;0.16757044361578788;0.028165802728450026;165.0;0.23626820829274894;0.17820744406333927;0.03185468987248724;167.0;0.23770189280786305;0.18276173516826447;0.03350468275776685;167.0;0.2383636372781986;0.1788830638839396;0.03209647080433152;161.0;0.2386742722821913;0.17403435911634776;0.030375000551550402;159.0;0.23982939763708191;0.17410843403191817;0.03039808299042554;155.0;0.2402604839858456;0.17140924322013176;0.029468916723794068;158.0;0.23848464884594112;0.16122280961493915;0.026069893322680324;163.0;0.23551227652491435
0.20820440674397486;0.04348794410614491;163.0;0.2684805965270289;12.0;0.22838790120642535;0.0523230693694086;155.0;0.27677106569922505;0.24156226824693247;0.058543524782743286;157.0;0.2816794478585568;0.2569311013443041;0.06622755783802475;149.0;0.28633877805422764;0.2665776793421367;0.07128972816574371;149.0;0.28774718910590624;0.23845988493205042;0.05704153944153001;152.0;0.2746642645015361;0.20791714414407744;0.04335904910667123;153.0;0.26128031294444537;0.19185719552522493;0.0369300723880294;164.0;0.2583772446565025;0.2248637858805995;0.050730314772363824;148.0;0.24527440479569643;0.22157669504680172;0.04925712099177297;145.0;0.24617243709781497;0.21151750358945579;0.0448825205869528;146.0;0.24776489872917565;0.19859837508710393;0.0395675081578093;152.0;0.24751762977037353;0.18876975989901648;0.035750202436292955;150.0;0.24871166601459474;0.18888607438414307;0.035794819823221094;154.0;0.2520089486324204;0.1932900470190405;0.03748456856441164;156.0;0.2538403292151917;0.21183837638263314;0.04502256937070019;150.0;0.24068174096012318;0.17959053045739545;0.032355503020015795;147.0;0.26477324808189284;0.21136490612838021;0.044814079476083485;145.0;0.2759840963984653;0.22301027483211713;0.04988748560079611;152.0;0.27248599596904655;0.23484173087323826;0.05531610673194964;149.0;0.271637198939953;0.24295028108815933;0.05920152873064107;149.0;0.26947794281583;0.2205253628839498;0.04877884048788111;153.0;0.26070498329767916;0.18587415368674284;0.034655388805831314;154.0;0.2497114983621573;0.17468576391178525;0.030607871095362445;145.0;0.25813513760654405;0.18913108027312642;0.03588725612725005;155.0;0.2415833800959348;0.20329089007620516;0.041461969956303225;150.0;0.24264376350644778;0.20914073921116344;0.043882624172064684;151.0;0.24299246480429496;0.20353473570581612;0.04156158655596376;144.0;0.24295872039344704;0.19440447161857072;0.037916371629161436;142.0;0.24395283803579712;0.1881074949448025;0.03549752844232566;138.0;0.243005651335055;0.18009694461677736;0.03254071634970957;142.0;0.2387330182843493;0.17980270647015223;0.032434667212569844;148.0;0.24003188842579817
0.17718259404769587;0.03149679957496859;158.0;0.2572240221630025;12.0;0.19289858963809114;0.03733222891112916;155.0;0.26617985922520765;0.20533597727647065;0.04229262309347773;150.0;0.27420354525741114;0.22612182577715384;0.051282876887822064;145.0;0.2819763673598346;0.24203459865236027;0.058768953929502876;139.0;0.28408596397830654;0.21564968434158113;0.04665571770309373;139.0;0.2715876912879003;0.1824778642933565;0.033403844578346005;139.0;0.25771900943699705;0.16943043848500786;0.028798096784662;152.0;0.25499595649671364;0.1895076504198618;0.03599361756046953;134.0;0.24612815323823808;0.18195272376311636;0.03318476582273893;135.0;0.24537699332630009;0.17375901685523815;0.03027322512694771;138.0;0.24551930342132536;0.1657616647679656;0.027554056467861066;143.0;0.24493468283616346;0.1612327552916969;0.026066103944806532;148.0;0.24626984825689824;0.16467243796690875;0.027195383821069768;151.0;0.24790204812034183;0.16786192465588068;0.028259832455638713;153.0;0.24813527060040194;0.18002382290170627;0.0324939493948552;140.0;0.2439244857821314;0.1985736611154411;0.03952588031855325;152.0;0.2802462541243119;0.2312169703876366;0.053587292407734195;154.0;0.28888960030288424;0.2395734341745633;0.05754957497969864;158.0;0.28339794774818894;0.2524343522250099;0.06389783974398461;149.0;0.2843432798103251;0.26649960436032094;0.07122084409979758;148.0;0.2880390710641652;0.24266511250709039;0.05904711862119982;151.0;0.2798740219941709;0.20129118148158276;0.04061629525671309;149.0;0.2669950679445357;0.193093426758042;0.03738892803085846;157.0;0.2770066614912238;0.1769608060502041;0.0313854079736729;164.0;0.25284909031995634;0.18226684839979307;0.033288210279697646;152.0;0.2511844579040926;0.1835921221873201;0.03377681834937191;153.0;0.24908574414504328;0.17940359743062265;0.03224065038900667;146.0;0.24783888169293306;0.1734655016023514;0.03013569879615488;145.0;0.24924601466095878;0.172520132921741;0.029806475135080744;151.0;0.249799449417;0.16930998607972397;0.028698350845332236;159.0;0.2472897767599181;0.17138019231986723;0.029435889400562538;159.0;0.25202104648441886
0.17942775424494112;0.03226532898614623;161.0;0.2800313715896303;12.0;0.18185423171289136;0.033141937564529676;161.0;0.28534469221599656;0.18454447619573938;0.03412328716420569;159.0;0.28695774353451303;0.2056177726265595;0.04236112947316784;151.0;0.2897019956723469;0.22932635462999323;0.05272722451718813;150.0;0.2920556255255018;0.20621458665632378;0.04262772908476606;148.0;0.2821630815978826;0.17612208205314986;0.03109331157152807;150.0;0.2710675348405466;0.17325675972577395;0.030060651107028713;159.0;0.2746554660810581;0.2086375572249701;0.04360772763245607;157.0;0.267081438319968;0.20520249232647522;0.04220032432030778;157.0;0.2666661690817644;0.19871158139317366;0.03959230920469127;157.0;0.2662450498560817;0.19000491946310386;0.03620234834397762;159.0;0.26391188451031095;0.18253754535807956;0.03340789231617555;166.0;0.2644071840730685;0.1808779174892608;0.03279676289592954;164.0;0.26641179651877067;0.18138819970047806;0.03297692023056682;161.0;0.2684973111869914;0.19359009934632296;0.03750978860124372;163.0;0.2632617777986353;0.24186531446124937;0.058690279802974275;155.0;0.3047892839597743;0.27721137698518544;0.07709342492403962;159.0;0.315669747395981;0.28955764240433574;0.08409383904201713;162.0;0.31592320458618245;0.2961746014859483;0.08796948043999614;155.0;0.315783150919909;0.30170215232635156;0.09126549639584955;157.0;0.3159078701778251;0.2745035195238273;0.0755681849816252;157.0;0.30316108632282973;0.23281212488298378;0.054369327996072726;158.0;0.2874263741167783;0.24177040724611393;0.05864333176971596;161.0;0.30211743989837136;0.2276785579361679;0.05199551028339914;164.0;0.27005020119308293;0.23532783866891693;0.055545744990909265;155.0;0.26856602657849565;0.23648655120147266;0.056094552745404036;158.0;0.2661512976451829;0.22850007989454618;0.05237028980237858;153.0;0.2651686824406552;0.21976876501804024;0.048446025351043434;152.0;0.2678818484317924;0.22183366092187567;0.04934671919126464;156.0;0.2704146094825498;0.2180142471144304;0.0476769786537286;160.0;0.2700581403778309;0.217983089080384;0.0476679850584214;163.0;0.2690645531474144
0.22065179066900978;0.04884590003493498;159.0;0.29795440140372925;12.0;0.22697762184257445;0.051687183968191545;155.0;0.3026853423763303;0.23934933760117677;0.05747290434892096;162.0;0.3023879362828785;0.274379444908466;0.07552663344632425;155.0;0.30563244723380817;0.30457438220496913;0.0930628614432314;156.0;0.3115367503756875;0.2727794927587322;0.07464973311492944;158.0;0.30039155105777204;0.22974854655997645;0.05295345974001747;158.0;0.28705086995554685;0.20472599443746053;0.04204774849664997;160.0;0.28726146954599646;0.2276978172117849;0.0519589625216413;155.0;0.2765425106146614;0.22249225774435308;0.049625744537297664;152.0;0.2761168449234844;0.2150020734185295;0.04635560212844453;151.0;0.2756897304197399;0.20955028846687465;0.04404505020243914;154.0;0.2743822919968777;0.203915868250829;0.04171379521261401;156.0;0.27616450722738356;0.20366989419066645;0.0416130061565459;155.0;0.27954814512062726;0.20893701440353696;0.043792604309173304;156.0;0.2832836964053611;0.21837958153682455;0.0478053814727776;160.0;0.2722937106547222;0.24525155746395835;0.06033445832325825;152.0;0.313740568410444;0.2780661495469996;0.0775694496706842;149.0;0.32346962172615024;0.2901728688167256;0.08447651992004608;151.0;0.32737410993887917;0.295907312580903;0.08784883186748754;152.0;0.3284463863601771;0.29865621290949895;0.089488148183724;154.0;0.3253783661114961;0.270676759541394;0.07350540489316312;151.0;0.3111276383198013;0.23000242173022842;0.05307143093846585;157.0;0.2961855201796538;0.24127323651559524;0.058392068683915534;145.0;0.30944225712248286;0.2352859168093788;0.05553803899469361;158.0;0.2841626000475267;0.25022016152331394;0.06281490835378768;153.0;0.28586923398365505;0.2551414839153039;0.06530841537879943;155.0;0.2848731270460673;0.24604922745768124;0.06073478403332509;155.0;0.28335567829008995;0.23662652360580036;0.056168948832663594;154.0;0.2837131165477864;0.2369071330838063;0.05630776856332948;157.0;0.2851139788618254;0.22968059296247612;0.05292582445882041;159.0;0.28459706735659673;0.2213675644430008;0.04915870870491442;158.0;0.2810250056013775
0.23645660367425836;0.05606572358869451;156.0;0.2934917156207791;12.0;0.24978138082452428;0.06255976226522063;150.0;0.2982940150761579;0.26646698864965035;0.07117761158477727;150.0;0.297571851171024;0.30037515582614077;0.0904333345628448;150.0;0.30220826299811065;0.3255863296501933;0.10628389828309547;147.0;0.3096667117544713;0.2962957297869692;0.08801913049609819;151.0;0.2996876238586743;0.25459207192389743;0.0649900181288568;151.0;0.28672703086639556;0.21749321706584834;0.04740247686256313;154.0;0.2838749432800829;0.2307079549640669;0.05339247924134111;146.0;0.2724572648731653;0.2215796151457939;0.04924677586577231;143.0;0.2713381665237057;0.21177882622669783;0.04498268125907269;141.0;0.27042564842605676;0.20695135662285738;0.04295613486159356;146.0;0.27090481062466143;0.20476886852477424;0.042045476920101105;148.0;0.2738399734209958;0.20738670259083952;0.043117506026365784;152.0;0.27819034655563285;0.21285988912597176;0.04542073140873402;154.0;0.28083051954606314;0.22950789417231723;0.05281753578173225;149.0;0.27042254204250427;0.2030695635244251;0.04134472211228745;153.0;0.28792413186809407;0.23164309735985458;0.05378053993238414;151.0;0.29628310948546166;0.2377512489261811;0.0566250423305834;144.0;0.2968755059344951;0.2471467205462933;0.061204435400709196;141.0;0.3003942950156329;0.2591199205045111;0.06726558220275165;140.0;0.30198104822563443;0.23743311893177874;0.05648857492993095;143.0;0.29202421476287205;0.19866572622631268;0.03956263956614645;145.0;0.279844548722333;0.18938151178482782;0.03596389486828089;151.0;0.285167899351057;0.18652919884878472;0.03490254182257957;151.0;0.27201204443668703;0.19853507782185198;0.03953956745747678;150.0;0.27464935591346906;0.20428192524615854;0.0418565867894428;150.0;0.2756263462062651;0.20000038858124292;0.04012642133806386;152.0;0.2756208311748945;0.1944096705485967;0.037916631876179684;153.0;0.27574867050046215;0.19332033490804013;0.03749490793096465;151.0;0.2762615717377374;0.18609107290103188;0.034740561495628805;157.0;0.2751212222417815;0.17562901455504515;0.030946041760632082;148.0;0.26858609340815165
0.1644742987419904;0.02713981994957855;156.0;0.210905093067682;12.0;0.1762526332569879;0.031166272189326272;148.0;0.2139278534809401;0.18689391531795488;0.03504348687670277;144.0;0.2126038500346833;0.20604235632883783;0.04259216441946254;148.0;0.21535544489472763;0.2183294559091137;0.04782340569128447;137.0;0.21958391138473585;0.200730840847048;0.04042372510442588;143.0;0.2134376261095919;0.17632949116991922;0.031193587190850195;152.0;0.20713661032509326;0.14740378475779997;0.021798745068502007;159.0;0.20331435114865765;0.16271978956727715;0.026525228801890115;160.0;0.1987216333465079;0.15578705704894794;0.024326192769781974;160.0;0.1973626422559626;0.14846840067398032;0.02209629347323114;159.0;0.19625748161112624;0.14406302773357613;0.02081577598338009;166.0;0.19707279188167162;0.14221844522195148;0.02029092021661287;165.0;0.19930059792012597;0.14327351897530777;0.02059388489036716;164.0;0.20220461521030464;0.14542162274556533;0.021215964827368372;156.0;0.20309665141909639;0.16396684876722845;0.02691783244824392;157.0;0.19854450691646308;0.1529531735791682;0.023466888856497625;137.0;0.20983403723373106;0.1754601685138461;0.030871566009089354;145.0;0.21684017619936616;0.17857411557127542;0.03198394080384764;145.0;0.21423905574949942;0.18652971180095965;0.03489302318687095;141.0;0.2167654884953041;0.19947943667852203;0.039913211565692795;140.0;0.2207838585880395;0.18543343187608205;0.03449221298147153;146.0;0.2153273915265589;0.15323350313039347;0.023553899930405565;144.0;0.20570828687620177;0.14101791910070594;0.019946415094315127;139.0;0.20728171846915522;0.14172626996515778;0.02014859066440025;132.0;0.1971012136387495;0.14649571098838995;0.02152781503487679;134.0;0.19845881937785653;0.14963613270366924;0.02246237684881023;138.0;0.20024687128616378;0.1484197131663486;0.022099390432535598;140.0;0.20225365467425707;0.14243654435554354;0.020353306398704422;136.0;0.20300182796158286;0.13883990748288463;0.019337898159913592;133.0;0.20271519326659454;0.13162062761244117;0.017379661014568084;138.0;0.20101668270090411;0.1352885778241137;0.018359669917994044;135.0;0.1951646372921699
0.09101568413596624;0.008285565409354463;153.0;0.14902908047061866;12.0;0.0900296945183272;0.008108335411540674;153.0;0.146294289657168;0.0871436585778087;0.0075978860153910815;158.0;0.14252008274673728;0.09112992395851899;0.008309865334024643;153.0;0.14397280888155278;0.09160846433263782;0.008405151429584631;145.0;0.14374410871693305;0.08556598556879871;0.007337990002276878;152.0;0.1397555526520898;0.08184929943996093;0.0067148668501487785;157.0;0.1375778007235902;0.07888920173797406;0.0062279337481827264;161.0;0.14213640842529887;0.08559001222397768;0.007345235158871905;163.0;0.14166714954739465;0.0896994837783573;0.008064610172680585;166.0;0.1446667384058726;0.09297414883746605;0.008659981120899742;170.0;0.1469638080808262;0.08876111989294412;0.007892091337608959;174.0;0.14599288130003518;0.08190184400742966;0.006712804646114112;168.0;0.14347211001714436;0.07694981762708812;0.005919250829687291;161.0;0.1429488311581407;0.0790917876045318;0.006255402833235748;152.0;0.14292710063043298;0.08005570553622648;0.006429468899607846;155.0;0.13717498999995562;0.08623110109725057;0.00740721553158392;129.0;0.13563577250078626;0.10135106704214136;0.010244299355302858;138.0;0.14091147244274174;0.10688281385823514;0.011405902643739325;140.0;0.14369405122545154;0.109770009368025;0.012026363543895219;138.0;0.14456036438708297;0.11163197960038117;0.01243179249923691;137.0;0.14365439622125636;0.10289485416579248;0.010552600063905168;138.0;0.14132858192784653;0.08585661378430341;0.007356346297296704;138.0;0.13774911573887247;0.07940791627563297;0.006283180051721757;132.0;0.13449913964358784;0.07608219445078562;0.005792997917730596;139.0;0.13173305438393185;0.07799604776089623;0.006091002954428037;139.0;0.13285098786558316;0.0779880845842495;0.006091983585469359;138.0;0.1324346765700548;0.07703667935956096;0.005938250042755222;138.0;0.13311695338091814;0.07492909048546234;0.0056138367536581486;136.0;0.13277437840930525;0.07426602317671613;0.00551219876064714;134.0;0.1322733912314649;0.07058217648477785;0.004980122405679903;141.0;0.13196792053491446;0.07404681194198737;0.005487789323014099;143.0;0.1307883449838509
0.11997069635158202;0.014439963005848289;157.0;0.20420914577423913;12.0;0.12225306818786502;0.014994573059905739;153.0;0.20393254209566325;0.12976311591938128;0.016893063037503982;159.0;0.20603353890168927;0.14606432172718264;0.021405181520862515;162.0;0.21292116787236126;0.15005027138032306;0.022587604984002335;165.0;0.21356264099660766;0.13553932829024162;0.01843061462037045;161.0;0.20557460403118855;0.12283410210398847;0.01513717553727606;160.0;0.19869136014091454;0.11213155063046502;0.012612755096905256;161.0;0.19650049453248836;0.11780049575330903;0.013921710147615092;160.0;0.19178651839525987;0.12021375374975855;0.014496671041479179;156.0;0.19460810991929545;0.12158262789263473;0.014829428839039925;158.0;0.19661704997433022;0.11901570173107943;0.014209023096769085;158.0;0.1962635691364245;0.11495693197775171;0.013255221657780406;156.0;0.19497085004661238;0.10971885174160173;0.012074913431149734;154.0;0.1946588550478662;0.10838510878395034;0.011783737298260277;154.0;0.194081600474186;0.1161510651734445;0.013535100436382832;154.0;0.18779011474892804;0.11024148028601756;0.012192804552708752;136.0;0.19103219326666587;0.11974235136450641;0.014385227261967259;143.0;0.1941603744549006;0.12664181270957728;0.01608912143620919;147.0;0.19602078324497924;0.13182064157085563;0.017430327233812614;150.0;0.1966953285356306;0.13372058066534076;0.017933860335520756;148.0;0.19567031487798686;0.12267864356519573;0.015096084981498805;143.0;0.1910707494778803;0.10858128858743583;0.011827090620553994;145.0;0.18491612900738663;0.10989135490502516;0.01211504686696275;144.0;0.19100880474304857;0.10942611280306856;0.01201314128746148;150.0;0.18112475061071676;0.11285481347045569;0.012777781007537077;149.0;0.18201697054290203;0.11329951946841936;0.012878667739038887;145.0;0.18136896498241273;0.11080464764186813;0.012317680671599792;141.0;0.18224299059043336;0.10726530855165219;0.011543321456775897;150.0;0.18291179693578044;0.10871219547088841;0.011856964408820335;147.0;0.18306099574784918;0.11442847397043251;0.01313599672998667;154.0;0.18504286679130116;0.10812074714093448;0.011728270127185424;144.0;0.1807335531484644
0.1624578794148844;0.026478288454677;158.0;0.24628714643928945;12.0;0.17090717628572277;0.02930469896615782;149.0;0.24626846296870944;0.18033784266355576;0.032625424189329684;148.0;0.24699685378372238;0.19732115948208162;0.03906265462801799;161.0;0.25195056084762235;0.2010536701867612;0.040554697454357316;168.0;0.2531220708878835;0.17706438371447847;0.03145407954998454;160.0;0.24359771988962517;0.1550776166278034;0.024126614530189317;157.0;0.235426574354057;0.1493829003953449;0.02238786943536464;161.0;0.24093806096475584;0.13504300517886483;0.018295639531405953;157.0;0.22272020694441522;0.13899311598966427;0.01937881623729611;155.0;0.2254057358657281;0.14307814002846997;0.02053600068182298;150.0;0.22776627850562425;0.14360240222356468;0.0206874463437101;154.0;0.22982391930151963;0.1407347426746504;0.019870726461034334;152.0;0.2310743386845525;0.14319032843345125;0.02057025962103731;152.0;0.23334269637916596;0.14586455854843566;0.02134581112725428;153.0;0.2349745265052527;0.13768243303465508;0.019018342089207243;156.0;0.22094931082855618;0.1389920097870312;0.01937017216976047;144.0;0.22305446801040385;0.14465482699656707;0.020976829509847993;149.0;0.22493870455473233;0.14493438133262662;0.02106437550274259;157.0;0.22158229255391002;0.14964109286567454;0.022458124319268295;158.0;0.22092848670671408;0.15404910143443395;0.023802674844451567;161.0;0.22111371184905193;0.1449740993466176;0.02108495735243015;155.0;0.2162389610146123;0.1325320256983988;0.017621473312665198;158.0;0.20997563701965175;0.14361208597920141;0.020691367980834735;151.0;0.22373124819593918;0.1390247331937829;0.019391259839320843;157.0;0.20531368579466594;0.1462990834954457;0.021473073482746654;155.0;0.2064451767491511;0.1502950250665242;0.02266247007011695;155.0;0.20765272479236113;0.14868332024995554;0.022177545556885853;152.0;0.2075483759147403;0.1410116774134328;0.01994865863890695;161.0;0.20729221766766193;0.14046715066730636;0.019795133284509058;160.0;0.2079290984482379;0.142871645063508;0.020478982850295237;164.0;0.2100789031206642;0.13644364642510154;0.01867788251067263;149.0;0.20552398851961645
0.18129274505019685;0.032973585805834024;164.0;0.26021043800712534;12.0;0.1878991651188291;0.03541908276249511;159.0;0.2625037951132524;0.19214853304579194;0.03703717673864186;160.0;0.26229555436361685;0.2025638658533918;0.04116148828878904;161.0;0.2625636630901273;0.20510778963167522;0.042203958176411434;162.0;0.2611648784573849;0.18312335936564433;0.03363842088902307;162.0;0.25236944091953917;0.16286132596644654;0.02660211696415023;165.0;0.24381839760343607;0.16523763928270235;0.027389019021518853;166.0;0.25485350953184915;0.1576305066883494;0.02491377992590083;164.0;0.2327719732521194;0.1602676203667236;0.0257584456355925;163.0;0.23679741286352793;0.16254869370954053;0.026492803956885143;161.0;0.24018932544672805;0.15998410115161757;0.02566442088847942;164.0;0.2421823934583354;0.1538902188550221;0.023749454510167297;158.0;0.2432689186731936;0.16009384067099458;0.02570943942657663;159.0;0.24749464239188387;0.16735334929344572;0.02809733247720743;157.0;0.2505395241469683;0.1554383657775694;0.0242271398688537;159.0;0.2293952210330211;0.14417512677523409;0.0208529396552662;143.0;0.24002760633274106;0.1501281436744761;0.022611383114110886;137.0;0.24205817900507032;0.14704582056869123;0.02169304019908979;145.0;0.23574160231619026;0.1512503033363758;0.02295123233596679;150.0;0.2350067173327597;0.156946496269124;0.024712753673237216;163.0;0.2366692401557158;0.14859108752027816;0.022150120923709386;160.0;0.2316980806030549;0.1342308076979443;0.01807656541764625;159.0;0.22415336583913475;0.14330818155780123;0.020601888975168174;151.0;0.23368269471507652;0.12825728434877004;0.016502211315434695;161.0;0.21418556291235474;0.13524771281811301;0.018349718642378266;159.0;0.2152043916082168;0.1407366570593232;0.019866083420522297;157.0;0.21686075186223536;0.14443185928712007;0.020926597081872157;155.0;0.21853485554006732;0.14749120731213813;0.021824314183332597;157.0;0.221611894723546;0.1512622693941308;0.022955200612961565;149.0;0.22444006985587467;0.14534121295518979;0.021192406940554822;154.0;0.22389170004322032;0.12624762618590055;0.015989551046854972;158.0;0.21403855108562314
0.16635454092329333;0.027756530331155035;154.0;0.24985934731693826;12.0;0.17006379647584083;0.029003518640027447;147.0;0.25521814305537155;0.17087842669659198;0.029279235720559495;152.0;0.2589931033367869;0.17375695311780864;0.030281029439599226;156.0;0.25905470463526437;0.1724210129507385;0.029816357610546226;155.0;0.25632611216633217;0.15730274643110978;0.024818025862191725;156.0;0.24938737960169022;0.14455364220425315;0.020957804438505718;158.0;0.2433913724497607;0.1591136758829036;0.025397569788214478;149.0;0.24608039012035596;0.15863612191685533;0.025247285226895257;152.0;0.23633053568535;0.1573445563778307;0.02483719081752215;149.0;0.23876740215009112;0.15485059839899012;0.02405498424852435;148.0;0.2400106502623371;0.15282578255081916;0.023429037534905738;150.0;0.24130281110167137;0.151586130096103;0.0230493801352112;154.0;0.24236805653389693;0.15763361524811434;0.02492068829787353;152.0;0.24646326182375342;0.16203862902869934;0.02633849529035511;153.0;0.2468149388472027;0.15259034777467298;0.02335974612156277;155.0;0.23410646642035438;0.15786770714633191;0.025002786464686698;138.0;0.2571884323492288;0.16607678471837145;0.02766461898237263;138.0;0.25951649774127816;0.16782867487532413;0.028248558462158603;147.0;0.25534624200121836;0.17591168779257152;0.031037988601158775;153.0;0.25453993954268783;0.18286551783914048;0.033543215678370285;161.0;0.2546904780861598;0.17080525845238087;0.029266671372459665;159.0;0.248068542919649;0.15002147741209526;0.022579993903231864;153.0;0.23841789768567784;0.14590113764376472;0.021356657547276104;145.0;0.24396137782294247;0.13573187718588514;0.018481735936829242;144.0;0.2301301462188448;0.14116946852698076;0.019993139456584527;145.0;0.23183645187275936;0.1458130087777812;0.02132730804285239;146.0;0.23341816379980934;0.149434048290407;0.022400649129372976;144.0;0.2349170445439457;0.15468762263951616;0.024005040697471287;137.0;0.23820921542134157;0.15996167295105038;0.025667693425623285;131.0;0.24036305157909152;0.15595556219185985;0.02439663820395225;135.0;0.23825566026685588;0.13222502035948064;0.01753995976302544;142.0;0.2273328899322161
0.1767434073470207;0.031340539956747133;145.0;0.26138666922679316;12.0;0.18405734094822668;0.033988307886284146;146.0;0.2662711114571645;0.1848072194294527;0.034261666346180795;148.0;0.2675595238895051;0.18433641185769212;0.03408584984425841;155.0;0.266865300707835;0.1814633756933169;0.033031147161764036;156.0;0.2640903189280225;0.16469340013897119;0.027206909821497163;159.0;0.25635466612335395;0.14811115667353383;0.022004026617562535;154.0;0.2503137250610015;0.1672646448605981;0.028068838259132912;154.0;0.2563448922202908;0.15494159838010668;0.024079902411448296;149.0;0.24231488121814318;0.15483577409467414;0.02404935014461583;153.0;0.2442585754974788;0.15484638113511065;0.02405427977544522;149.0;0.2456511327954214;0.15655417580270908;0.024586906241777624;155.0;0.24670138052094479;0.1571782698898686;0.02477840723658256;162.0;0.24780942439850184;0.16103874548957434;0.02601511667965853;154.0;0.25107635419900853;0.16486344495119057;0.027263243796827513;156.0;0.2527233795506568;0.15050140686582913;0.022714179797360613;157.0;0.24106583313135715;0.16853620724867907;0.02849332684061894;152.0;0.2680139127390336;0.18527654229635449;0.03443959459616479;157.0;0.27417200514043455;0.1981900447254649;0.03941148830388428;157.0;0.2733259542687179;0.20945015569244763;0.04401621576048536;161.0;0.2722759620703924;0.21394208090910688;0.04592370068191194;161.0;0.2691832098882826;0.19752909599904422;0.03914764413879102;159.0;0.2600738467397777;0.17200043224037953;0.029682749499189368;157.0;0.2495831783574437;0.16343115145551634;0.02679724225634972;149.0;0.2592721215447782;0.14907073972478943;0.022294134999517354;148.0;0.23760182824532736;0.15599466836476386;0.024412099529716326;148.0;0.23972727939561456;0.1610101989790367;0.026008919369611874;148.0;0.2410212891837306;0.1606822391247249;0.025903688898520905;148.0;0.24122126338484942;0.15567240772542043;0.02431360818666204;142.0;0.24162229688588968;0.15356970264072128;0.02365877571451166;143.0;0.242352781652149;0.15143896135959117;0.023007894479239885;150.0;0.24139847531582656;0.1434436239417215;0.020643622926414806;148.0;0.23476107517365674
0.2053206261486151;0.042243443515926224;161.0;0.28879479033298344;12.0;0.21373570667490302;0.0457781764144711;163.0;0.2916800322292042;0.21441986388186696;0.0460803712866081;159.0;0.28888748941278225;0.21788240500878653;0.0475934469395049;164.0;0.2883109912749089;0.2192605119667744;0.04819201133773265;163.0;0.28697558684786884;0.20222892449187782;0.040990145379955135;163.0;0.27794006373423313;0.18568026952673566;0.03455106929014636;157.0;0.2701708963775529;0.18292670892159651;0.03354382682088618;169.0;0.2743882372779397;0.18544558134159078;0.03441033855954735;165.0;0.25907730555344355;0.18141381409859653;0.03292908503315085;169.0;0.25944256452948694;0.1804872545313119;0.03259748651017868;168.0;0.2613754499706208;0.1806503259703359;0.03267203073165007;170.0;0.26153872684249224;0.17908184379465697;0.032109938102112504;166.0;0.2622341625513742;0.1776398610570581;0.03162010957657953;160.0;0.26464270885445357;0.17941179256507597;0.03225518662129967;164.0;0.26843580887257157;0.18112252925202701;0.03284233609761837;166.0;0.25534531227744356;0.18250887144021619;0.03339901318316343;161.0;0.26511984945084877;0.20266285420935132;0.041181517201582266;167.0;0.27003055219119626;0.21356287009887998;0.04575493653447581;169.0;0.26920671348770486;0.2203367192462148;0.048703183322597064;168.0;0.2699236778067059;0.22102591018384876;0.049009240271724916;167.0;0.2681856821584814;0.2037038018925072;0.04162404348481763;167.0;0.2589213872286562;0.17879969057312273;0.03206686616917076;167.0;0.24775653167258765;0.17962169619586307;0.032359241618043676;166.0;0.262258450473593;0.16363707845555794;0.026853007241702295;163.0;0.23534449027377366;0.17258165732987024;0.0298701614380737;160.0;0.23812372991947264;0.17586923003597774;0.031013684731053252;157.0;0.2388978114253305;0.17150907186175723;0.029501709961706507;158.0;0.2383281649117949;0.16146364155341136;0.026145594558841172;158.0;0.23685663906128482;0.1543140723524387;0.023879195599263266;163.0;0.23569942778865777;0.14741954233264923;0.021790945794884768;168.0;0.23252806001017784;0.1558562375503165;0.024362301292456576;167.0;0.2329962016907065
0.19195343691100086;0.03693273653439271;160.0;0.2776600620416314;12.0;0.2006919516910126;0.04037699797923042;163.0;0.28014811762914393;0.20709290516085543;0.04300201390886062;153.0;0.27913671556578745;0.2192675313015655;0.048204715269605285;153.0;0.28213373789349033;0.22832145913942317;0.05226702121241757;148.0;0.28421383291542496;0.20937309778500143;0.0439572307483496;143.0;0.2753008853487546;0.18851577562572036;0.03562694714215599;144.0;0.2675531811812477;0.1714531135603717;0.029466142698440556;157.0;0.26501249562248236;0.18035388079020595;0.0325291941756591;154.0;0.25546344875160715;0.17616525668580776;0.031025821048674414;157.0;0.2552995211061887;0.17429960669742509;0.030385875411460823;157.0;0.2559546710477793;0.16943482375288757;0.02871368853937843;152.0;0.255451888786813;0.16436018848442518;0.027044965398039533;147.0;0.2557468994100699;0.1619630730979566;0.02626750681439338;148.0;0.25781196035032267;0.16391609828269965;0.026913418002665366;153.0;0.2597854348481103;0.17208492292219943;0.029621979719110715;152.0;0.25078865905432357;0.19921019520099548;0.03981071218266539;153.0;0.2793243526782972;0.2135715236959067;0.04575865981663542;160.0;0.2812044204777401;0.2139845929516176;0.04591769114814816;160.0;0.2789317868144951;0.21910293522413277;0.048143842419317684;160.0;0.2804795864230806;0.22468226018946852;0.050634198078666155;156.0;0.2826688966590608;0.20917674589400798;0.043879027726063315;156.0;0.2738641850154625;0.18470966415053913;0.03421463485518351;147.0;0.26000832019488607;0.18563147457367696;0.034555539512582036;156.0;0.27391989331370253;0.17603175445659552;0.031088234937950165;150.0;0.24733589962227553;0.18330186420117894;0.03370820285806567;147.0;0.2490076534796036;0.1864698823744195;0.03488471309745785;148.0;0.2494515806297842;0.18694615731900122;0.03506259455117614;152.0;0.25066785517650964;0.18157996907618867;0.03307815593766717;153.0;0.25068698049776755;0.1790957140982358;0.0321800781962901;158.0;0.2500919163832233;0.1691201519160517;0.028693575801422757;157.0;0.24608805585318153;0.16935189979101406;0.028772030630087046;147.0;0.24576937092572723
0.17814899593021322;0.03179518944926275;158.0;0.2503907982900859;12.0;0.1951982629413219;0.03816276674073257;162.0;0.25750605669111726;0.21013847762073343;0.0442275555804057;156.0;0.2649825185133545;0.22732409988365904;0.051772613933371396;154.0;0.274597512043873;0.2398289460117894;0.057642271301883014;150.0;0.27959954620829164;0.21428862814098545;0.04601063382091071;149.0;0.26831766149003633;0.18255121552858905;0.03337423087349487;154.0;0.25603301644490556;0.16469314517275202;0.0271861117068242;156.0;0.24726541309196082;0.1526555820778349;0.023278923722914208;147.0;0.23372175635067918;0.15039291661524484;0.02258467401328427;151.0;0.23473999391973768;0.14973088782697755;0.022397774523629843;150.0;0.23483213271983974;0.14654899077473468;0.021457924620849347;146.0;0.23445048071017874;0.14357498572724808;0.020620073361540994;148.0;0.23569346349592668;0.1459035144276634;0.021326832804525474;150.0;0.23964243698349852;0.15175085166430174;0.02308197179128034;153.0;0.24143410415707892;0.1472948774021982;0.021717720119306304;147.0;0.2328988977588186;0.2221908992647184;0.04950984212466809;156.0;0.3000910590222785;0.23974967016878193;0.057639061030206544;157.0;0.3038499206472597;0.24312110867347703;0.05927221933798666;150.0;0.3023538055731035;0.2504523186972105;0.06289787034388812;153.0;0.3031215584693378;0.2571320911927377;0.0663035991511569;146.0;0.3033920341728106;0.2367060319322076;0.05617179149025273;145.0;0.2929147081218225;0.20344094854236355;0.0415096737576774;146.0;0.2766640051676012;0.20882480306179865;0.04374158180942304;151.0;0.2941017869160267;0.17877854829338177;0.03204708030512306;144.0;0.2617297608730968;0.18333106687036035;0.03369747676282678;144.0;0.2626110843552292;0.1870019644848645;0.03505584522180427;146.0;0.2630840329633815;0.19157135362639247;0.03680311538816199;156.0;0.2653643028266982;0.19349504702830303;0.03754543866181767;153.0;0.2674641782207439;0.19533300863605346;0.03826355027423192;153.0;0.27020774812036424;0.18868028348020177;0.03570472962323165;154.0;0.26960946094552396;0.17325462145227258;0.03008899277023393;143.0;0.26073434678599194
0.1406222430918054;0.019832176552766125;159.0;0.19113688699540562;12.0;0.15661086155325038;0.02460204233511655;154.0;0.19697987043121218;0.1673846273018601;0.02809524602476551;151.0;0.20374637151046926;0.17699646801903315;0.03141324494484345;149.0;0.21147148148407977;0.18282163853859215;0.03351817641527971;152.0;0.21477974391464028;0.16302953108519586;0.02665639273028926;154.0;0.20538506945774834;0.14074927542767995;0.019869569848669385;152.0;0.1952966865863271;0.12917121346971946;0.01673207374184723;158.0;0.18991603429218956;0.11495614562979535;0.013248292573920292;143.0;0.18002567018741267;0.11231438419381719;0.012641915006235255;146.0;0.18021224267655692;0.11272927741735701;0.012734889979364146;143.0;0.18061101326859308;0.11404341283567658;0.013033999823837303;143.0;0.18034275986384746;0.1156229391413875;0.013395297388479088;148.0;0.18253569927573665;0.11665730254676274;0.013639780928354349;158.0;0.18627336242317907;0.11997240092700792;0.014426408537587967;159.0;0.18781097560725893;0.11435386188869635;0.013112075153606564;141.0;0.18090783410099112;0.17317032429788878;0.030079582174494798;160.0;0.22341077329789108;0.18925289913988197;0.03592228991591785;164.0;0.22662700274544806;0.19455405194637498;0.03796101526518124;163.0;0.2259504015550385;0.19832091136026034;0.03945086974951316;164.0;0.22623182268540187;0.19918378926820937;0.03979490244378633;168.0;0.22453357385890915;0.18231077848690214;0.0333413345844741;166.0;0.21689633769284677;0.1564560037612772;0.024548003617921147;169.0;0.20703734875237167;0.16684315967665814;0.02790008743249649;163.0;0.22194763753040572;0.13918557373473636;0.019435858866979003;166.0;0.19823766762674233;0.14344574617260827;0.02064328950153155;168.0;0.19980441774914084;0.1464950633944204;0.021530672527053697;168.0;0.20108437439935575;0.14719970578507088;0.021734290672083607;176.0;0.2018614411351325;0.1474512924302463;0.02180783176303399;173.0;0.20224670916899917;0.14793387521975834;0.021952018247347115;174.0;0.2049033830353893;0.14509076553366854;0.0211142478478919;173.0;0.2053735683798656;0.13353198880220973;0.017888516841007018;173.0;0.1967892367798711
0.03627338267452399;0.001310189057416929;157.0;0.10232914900030154;12.0;0.03708810962661948;0.0013673191093270833;148.0;0.10086389369113641;0.04137069625980473;0.0016969421832374026;155.0;0.10006363931414378;0.0436375005229689;0.001895091673756379;154.0;0.09999844435981266;0.04281752881089555;0.0018322253923010328;154.0;0.09915645321893903;0.038955644135003686;0.0015150476033380172;158.0;0.0972960619209525;0.03683685749239063;0.0013555773381575343;160.0;0.09601056638554041;0.03659878167708343;0.0013329849326079812;161.0;0.10229549527578453;0.043653195718403294;0.0019091143418896437;149.0;0.1004577938641152;0.044578707401520846;0.0019900045286793387;149.0;0.10089724352257995;0.046294834789205076;0.002145630643879538;154.0;0.10213097037038514;0.044260708849000886;0.001956215129045714;153.0;0.10190635101594447;0.042991562084958135;0.001842756215265577;146.0;0.10296274454573687;0.038803403029565836;0.0015017211444011513;160.0;0.10451220053950905;0.03997674718310201;0.0015975134830204308;160.0;0.10565183434123872;0.03890607016042828;0.0015183534812387115;148.0;0.09731624273157262;0.048807748548577785;0.0023735339734421096;164.0;0.11473381497654014;0.053648637646101865;0.0028640985816256255;174.0;0.11572790035755427;0.05873189830446107;0.00343338891638521;177.0;0.11611129985231394;0.06245654888274307;0.0038856710230266178;175.0;0.11662108168526296;0.06499795916478579;0.004205096455346093;177.0;0.1172966374715289;0.060817780708901134;0.0036871689576221233;179.0;0.11511050184221062;0.05251087261036793;0.0027575629195967194;175.0;0.11326676175650202;0.04453386130636218;0.0019817174170860736;164.0;0.1130532445698374;0.05334538358743248;0.0028517947097669518;166.0;0.10485701557359074;0.05642746940065826;0.0031920598699193576;168.0;0.10683468988944428;0.061087255852988215;0.003741445981697046;165.0;0.10964283435077521;0.06232723962751947;0.003896188625143114;164.0;0.11190719152942828;0.05876967301100529;0.0034641299015425206;164.0;0.11098706085945628;0.058159654956431585;0.0033930490326473436;164.0;0.11169880484238157;0.05367126139398634;0.0028897981679464786;162.0;0.1114202712891136;0.04985289828977724;0.002487406041475349;172.0;0.10303259307463425
0.07858087527213098;0.006190021595162769;156.0;0.15709253560995126;12.0;0.08156276296472703;0.006667172030512456;154.0;0.15853751536957902;0.09040108317916458;0.008191710615497737;168.0;0.16060731899016767;0.10419438180849787;0.010885294840699668;172.0;0.16496935174715047;0.10530986386458868;0.011119332732703817;165.0;0.1646274714555417;0.09374966168370436;0.008810013138200503;168.0;0.15890102875437626;0.08307095194815373;0.00691531760494077;174.0;0.1532987731480523;0.07197592148061707;0.005192550942428397;158.0;0.15019133774379187;0.07454238060602206;0.005571244444158267;167.0;0.1474007073332364;0.07557683697916368;0.005726382106733414;166.0;0.14900790135840794;0.07380047099242376;0.005458604020188853;174.0;0.1487702035777659;0.06955421717723224;0.00485019325229209;169.0;0.1458835101466309;0.06549456682487205;0.00430318777235364;159.0;0.14454053044531018;0.06702634124277544;0.004505950695748544;158.0;0.14514938679912676;0.06972427876645763;0.004876296423988151;160.0;0.14726994854147696;0.07385144076523006;0.005470465367781648;168.0;0.14289106381967695;0.08919335128928738;0.007977796421215256;161.0;0.18450474995790817;0.09580913603948628;0.009201258697450558;162.0;0.18587368276194918;0.10203497533706886;0.010430070612791494;165.0;0.1851402487528196;0.1176763481252272;0.013876694160345758;166.0;0.18810589182262305;0.13189171192339894;0.017439770594801916;160.0;0.19253136087465253;0.11997073334362153;0.014430243896994764;166.0;0.18838141235689804;0.09941179929681095;0.009901128674057907;169.0;0.18174497754996338;0.08385639792568043;0.0070479512615511004;160.0;0.18126248925638466;0.07406891128195411;0.005502310795039995;156.0;0.16642712671926474;0.07874521420594889;0.006219096953943001;158.0;0.1690432641009319;0.08142258468174747;0.0066481618653072855;153.0;0.17023756937007056;0.08160562078805178;0.006676705894091317;154.0;0.16955655855511226;0.08111328203356279;0.006597957667245689;161.0;0.16842420953737777;0.0796924097945474;0.0063678665966337995;159.0;0.1687424200458408;0.07558585974951976;0.005731041134027803;154.0;0.16934299180798532;0.072759347546078;0.0053090621105836965;156.0;0.16515123549580032
0.11620334530511509;0.013546163394692732;153.0;0.1998083496472877;12.0;0.12160835005903042;0.014836757284011716;155.0;0.20311725325812804;0.13122581401820702;0.017276563310573062;154.0;0.20554364525748842;0.14944106568512397;0.022403842199934083;151.0;0.21025473671864586;0.15010522278796656;0.02259897448937522;145.0;0.20843985272373117;0.13035656977873927;0.017046148567397022;151.0;0.19914592877194803;0.11227430087439422;0.012645618238995626;149.0;0.1901145465581136;0.10391251474796878;0.010832981757590577;151.0;0.19159413404735476;0.09331290119763803;0.008735799155453442;159.0;0.18374845685979663;0.09522721570081225;0.009097167620857338;159.0;0.18621987733042092;0.09627543881592629;0.009297542848440936;157.0;0.1869120313196665;0.09157203831594558;0.008411684887977186;159.0;0.1838365267993216;0.08854231203034629;0.007864187467629803;160.0;0.18188339728386885;0.09395784733550355;0.008856866704911346;152.0;0.18286237928795127;0.10100939903774876;0.010236138130479838;151.0;0.18582414224965432;0.08954138866188514;0.008043890209693543;160.0;0.1784660135831139;0.14332637181241034;0.020597576187613348;151.0;0.24168855994372973;0.15659927590464398;0.024591362923421737;146.0;0.2434033317699955;0.1618892808956863;0.02628054028888109;147.0;0.2387101693123435;0.17389146589145815;0.030323466631565203;152.0;0.2395600859564472;0.18684564228978748;0.035013320861192854;151.0;0.24381837084973293;0.17176434938836005;0.0295934297878816;154.0;0.23896922314919813;0.14485679453664416;0.021045414339171193;159.0;0.23078953957819318;0.14095913440289387;0.019924540008588273;152.0;0.23578976591445588;0.11649763917148846;0.01360745738173589;158.0;0.21845252123579045;0.11922090221678654;0.014242205777392722;159.0;0.21898573243791092;0.12015376201624142;0.014465979661560411;161.0;0.218615330708247;0.11889796668400537;0.014165445511489683;166.0;0.2172585841220931;0.11798003347504546;0.01395074622474336;173.0;0.21652317406249036;0.1187947916948167;0.014142038196575767;169.0;0.21738998985401098;0.11640595620822057;0.01358089696952095;163.0;0.21752360752342226;0.11496202908853309;0.013252387470823895;157.0;0.21742222499836653
0.1304516074820269;0.01707176008505392;151.0;0.23015332280672374;12.0;0.1369727195219333;0.018821809804567203;152.0;0.2323964973526535;0.14320815585353186;0.020574071458142433;145.0;0.22934881527247525;0.15549586443324015;0.024257066046994406;144.0;0.22840212083159467;0.15624793393818814;0.02449071023340921;140.0;0.22503915870113686;0.13884015685624437;0.019337082200144243;148.0;0.21522844063839275;0.12356518324588998;0.015316662148601966;143.0;0.20688671038832396;0.12126588945953248;0.014752629209424774;152.0;0.21869042872733072;0.11234971878012714;0.012658478713661043;153.0;0.20534209956141433;0.11160867151755123;0.012490133880698251;153.0;0.2069486246754674;0.11365235957228194;0.012951740171731051;151.0;0.20791058646735242;0.10974556519813324;0.012076256674056495;155.0;0.20731237884230966;0.10645376183330346;0.011365088995470219;158.0;0.20745564076667913;0.10998938334351836;0.012135929886593911;155.0;0.2106955141927084;0.11660981694248401;0.013641351673216744;154.0;0.21456642003467627;0.10193757986878199;0.010421791847705773;156.0;0.19946413789911582;0.18432501418791647;0.03408461005086867;144.0;0.2526298288147982;0.1990641407631423;0.039755878882190746;142.0;0.25527210642446674;0.19789305464226875;0.03928876678395372;135.0;0.2491601856537975;0.20155390667930848;0.0407527981849703;136.0;0.24926365918567178;0.2053558569527402;0.04230231501588734;136.0;0.25062326737848567;0.18959901541914076;0.0360568353755383;136.0;0.24375156050177163;0.16379015067886932;0.02691067776964725;139.0;0.2337808093401033;0.17605025342147887;0.03109463152020427;136.0;0.24014569455553014;0.14717067601419423;0.02172938162059552;134.0;0.22356953188792963;0.151493012155641;0.023024179638997222;139.0;0.2236112458035535;0.15417532086392408;0.023847316468809766;143.0;0.22375172532019713;0.15528981318091045;0.024193680506176853;143.0;0.22424681368255378;0.15486797845682795;0.024060439634981997;143.0;0.22579875195844337;0.15645141340794808;0.02455552932784335;146.0;0.2262903668373697;0.1524851829771251;0.023327704410400423;147.0;0.22311216582604992;0.14213494213448516;0.020268154668953393;136.0;0.22238947252937674
0.1539969734808025;0.02378867959583609;150.0;0.2620573754489584;12.0;0.1591640940588449;0.025414002680049005;154.0;0.26474524559487655;0.15958361815976446;0.02554975533682527;155.0;0.25961355721304685;0.16489658382326772;0.02727983573778399;157.0;0.2568793477347343;0.1643823109360255;0.0271098886940834;155.0;0.25279892876951227;0.1474126874503617;0.021801556753233104;158.0;0.24134490509698012;0.13436598965623017;0.01811307130016741;157.0;0.23390141618417082;0.14486821053023646;0.021054591463013656;154.0;0.24831830777325667;0.13607309320477665;0.018576386196473615;153.0;0.23594562865145896;0.13301780107012148;0.017751851586261844;149.0;0.23692114148967497;0.13284653298050014;0.01770607563172166;152.0;0.23664818291355358;0.13083531969794004;0.017173924415914026;153.0;0.23577825691254337;0.12786892318510423;0.016403954288179708;154.0;0.2363129429069399;0.13103414269224223;0.01722613508671438;162.0;0.23990858666179946;0.13710497749415107;0.01885916904263311;167.0;0.2436551092889947;0.1294440384791183;0.016810769562438876;155.0;0.22892555990897198;0.18641328226390785;0.034808462896658676;147.0;0.25468759302872274;0.20214020716223868;0.04094803442078368;143.0;0.25692384492492637;0.1985377231635452;0.039478165764463176;138.0;0.25064037766914776;0.2012660527627339;0.040559624092719716;139.0;0.2500047292865452;0.20254500798760247;0.041053991474384786;140.0;0.24963024666885064;0.18345084552341942;0.03367517372269026;137.0;0.24064614459326508;0.15715838327091083;0.02472562205894053;141.0;0.22875183311475947;0.1695241730520312;0.028769667787085115;134.0;0.23917889665035377;0.14997764870751512;0.022501119138230084;130.0;0.22121044575266535;0.15788867371461912;0.024936405080239116;133.0;0.2219855925685835;0.162285461467965;0.026354255039750717;132.0;0.22274032060656504;0.1647368123248804;0.027166496796275984;129.0;0.22353656397238944;0.16401230852819754;0.026928661666195265;129.0;0.22438054412169198;0.1654846478436896;0.027421407861987712;134.0;0.22582672947489021;0.15885306609448743;0.025269962550089165;136.0;0.22328160820424708;0.13975709146255935;0.019532378015100802;132.0;0.21762607942245948
0.17492975201379066;0.030683760403509435;150.0;0.2655870218941308;12.0;0.17895448568599848;0.03211584752861452;155.0;0.26920266170957596;0.18384984514586375;0.03390444144917614;158.0;0.2688374916956396;0.19799806107129664;0.03932759603691837;160.0;0.2729974977168924;0.20010698600686938;0.040171075348319096;156.0;0.2708840415149004;0.17582639798999464;0.031012199446629946;160.0;0.2572682119347805;0.1573945899933219;0.02485185255674514;159.0;0.24788484246120668;0.1641679784090814;0.02702334391531005;148.0;0.2535626751074298;0.1396649963508783;0.019570181662132317;147.0;0.23927658192713647;0.13937576316974754;0.01948889374688348;144.0;0.24118347122194642;0.14017508159721562;0.019711420581308384;142.0;0.24226894628394655;0.14078174383699668;0.019882921152910925;143.0;0.24163536008065728;0.14149550373750017;0.02008469854560189;141.0;0.24156171221275224;0.14728547920528898;0.021758068988217937;147.0;0.244755588205012;0.15754982424571637;0.024894638202759348;151.0;0.24899302803426804;0.1404487542270004;0.01978986179435611;148.0;0.23505460983149523;0.20594953513196226;0.042551092774708275;162.0;0.2669688408983334;0.22801648540155203;0.05215811823621243;158.0;0.2694704110076766;0.22772646556993148;0.05202863249736443;160.0;0.26478742176798403;0.23372409508117445;0.05480549080645646;152.0;0.26395750914501104;0.23916491257239142;0.057386440751664075;150.0;0.26418249476977224;0.21473976985322488;0.046263832473728804;145.0;0.2558282009348656;0.17858695792071497;0.03199667017947226;159.0;0.24352946689043675;0.18828627321019928;0.035564222209647396;161.0;0.26039023339557027;0.15306409704535667;0.023502157651917734;159.0;0.23739803907418422;0.16087508854640017;0.02596390582302131;158.0;0.23724844177922502;0.16375027261553307;0.02690116134304854;155.0;0.236199376615387;0.16401620488708588;0.026985869261660897;155.0;0.23566749880989854;0.16203576721360577;0.026338156229524498;153.0;0.23534768983937546;0.16522115489445977;0.027380730248499817;146.0;0.2380909447681764;0.1654265045808865;0.027453795176306667;146.0;0.23893451951455447;0.14284241867172978;0.02046873292038137;157.0;0.23312383379306575
0.17301042885718443;0.030030730368906335;160.0;0.2535236038896609;12.0;0.18282174049908428;0.03353091841430479;163.0;0.2586329966332092;0.19675762268827737;0.038837049367233374;169.0;0.26299318185831033;0.22095288596316193;0.0489787363036273;172.0;0.2717090070993749;0.22992775658524378;0.05303842102325864;169.0;0.2728934661377392;0.20261056842718636;0.041184986751170556;173.0;0.25924169363268995;0.17737927868495923;0.03156634237880889;167.0;0.24814108869904744;0.16364368023560083;0.026866722117923462;156.0;0.2441036697516467;0.14466907445834834;0.020997533297663986;152.0;0.23341860319744975;0.14468549867730807;0.021001969932690132;153.0;0.23473047965453345;0.144702160346033;0.021005674222130507;148.0;0.23496659471654124;0.14461855161463535;0.020982723129414436;150.0;0.23311822711010025;0.14530257982123376;0.021180343620742823;146.0;0.23195593989808944;0.1496157159409776;0.022458032055317313;150.0;0.23410163201846823;0.15583458916616597;0.024363996644687715;153.0;0.23844627722964767;0.14880776629224582;0.022216182291675463;154.0;0.23222532078241165;0.23915565651163545;0.05735613890091282;158.0;0.2840576022399933;0.2574968646545941;0.06648608596736481;154.0;0.29058987648236495;0.25144551294340745;0.06341461597905054;151.0;0.28601237940962193;0.2546337524172756;0.0650399844650741;145.0;0.2852399584264467;0.26038598917928724;0.06801650749682991;141.0;0.28569005437851014;0.23571616231885084;0.0557358347519977;138.0;0.27520726332927087;0.19679731012182297;0.03885261028810485;145.0;0.25944611921371674;0.22188192505113344;0.04937848793812025;160.0;0.2783023728781286;0.1589580576006355;0.02535008284811462;147.0;0.24577021002264715;0.16429175539366778;0.02707909233484782;147.0;0.2458981520759132;0.16748637774646816;0.02813891960528415;145.0;0.24579151953176884;0.1681465969354275;0.02835964412848191;142.0;0.24519822960396107;0.16601359649056766;0.027641376434791188;144.0;0.24442690469783096;0.17070086917758567;0.02922377454278887;138.0;0.24583119375717535;0.1751982214612326;0.03078419124294121;144.0;0.2475079292360913;0.1542011061330265;0.023855609505460375;152.0;0.2437008271280199
0.17328989154002575;0.030127291173499497;154.0;0.25859997083981245;12.0;0.18630442843437775;0.034821569920957314;154.0;0.2619022959627387;0.19863949965461491;0.03958659636841949;164.0;0.2637148197444758;0.22108023810869948;0.04903630011837105;170.0;0.26934566264491794;0.23219887536757747;0.05409255523257976;173.0;0.2710841323725764;0.204069334681281;0.04177855606571997;174.0;0.25983333659554875;0.1788328368677648;0.032085362602838764;167.0;0.25055911458479757;0.16357194691390212;0.026842992854196824;149.0;0.2509746423140436;0.16488645412676334;0.02727657638052494;148.0;0.24476417002333992;0.1623062813664497;0.026429535083892647;147.0;0.24523707361581604;0.15979608141483054;0.025618496880530847;150.0;0.2442897294566024;0.15656880405439588;0.0245942015437123;154.0;0.24208249286670244;0.15498856203491537;0.024100114674851743;149.0;0.24136469900627783;0.15697556586084424;0.024722121718568187;154.0;0.2427838647582897;0.1584504128238265;0.025188259794217762;154.0;0.24522093061589814;0.16292354028938463;0.026630718895521047;151.0;0.24214858285317073;0.22546982441577426;0.050993311673662424;158.0;0.28762584156470616;0.24315439317207577;0.059297082422362715;157.0;0.29963849751483224;0.23849111354174415;0.05704778365965613;153.0;0.2971538409506591;0.24152557559978874;0.058500892770954944;150.0;0.2973179480954694;0.24474229462274488;0.06005510545395472;153.0;0.29728729685544375;0.2233603474161599;0.050022500588716046;156.0;0.28581226884853;0.1911643618337214;0.036647524319602776;151.0;0.2701233537114132;0.21035880943488408;0.04438362947428663;150.0;0.2801758272589858;0.15943270103709362;0.02549567342811739;143.0;0.24809367330322338;0.16202603911176694;0.026334832683130447;141.0;0.24784403862626686;0.16391199642608392;0.026954226753154557;140.0;0.24824489157398227;0.16488047464600913;0.027273531268681653;138.0;0.2475083164069008;0.16425752562924908;0.0270694881322888;142.0;0.24536176427491727;0.16721411835798058;0.02805248895343586;146.0;0.2452332248339204;0.16574304406302662;0.027560768837119002;152.0;0.2463439858406918;0.15704561763732547;0.02473970943438842;152.0;0.2474231211423981
0.16357216632597815;0.026837832197127758;149.0;0.2576537844759414;12.0;0.17102005265684325;0.029337422905138504;150.0;0.25827137012296375;0.17444017332758335;0.03051867592612692;160.0;0.2537831678152778;0.18581873669343646;0.03463270942589768;160.0;0.25449339758865014;0.19216551257080866;0.03703282549611355;164.0;0.2538235636520766;0.17051375107499464;0.02916201069250873;163.0;0.24527076930919822;0.1528276592075758;0.023426260026288538;165.0;0.23922839276639585;0.15322330776680082;0.023550322464650674;146.0;0.24526327895093647;0.1579259529657729;0.025019878501813374;158.0;0.23539681650109578;0.1545579541236669;0.023965854595482405;160.0;0.23597788537583292;0.15093805453522963;0.02285671641481071;165.0;0.23541451782353945;0.14735615472674585;0.02178459215916436;159.0;0.23436170781369434;0.14513123011557397;0.021127745036569785;156.0;0.23486609298723407;0.14695551113590669;0.021665328982063192;156.0;0.2377212290317422;0.1517201264362556;0.023091217391884106;156.0;0.24110721963949;0.15350726143020205;0.023639927223754506;163.0;0.23312119243944912;0.18927218142918312;0.03592984144338233;152.0;0.27241046605857283;0.20809302401070692;0.043415509992520494;157.0;0.2834672073156086;0.209200503552708;0.04389160158512474;157.0;0.2819540619590415;0.2174162564612949;0.0474023063100267;146.0;0.28462608672857675;0.22571696945568448;0.05108158391246597;150.0;0.2875322425828038;0.20696744764588068;0.042950960963465706;152.0;0.2780026200250431;0.1784637264781376;0.03193960671961595;155.0;0.2646969317737035;0.18156428012315504;0.03305855831462437;144.0;0.26851350046319167;0.16325733062843434;0.02673733829903557;155.0;0.24902801151426435;0.16787376176177946;0.028269427258613575;154.0;0.2490955929785281;0.1687819452981104;0.02857179451870091;152.0;0.2489152302686448;0.1650756729690959;0.02733010331990681;157.0;0.24807919211940166;0.16196362572293407;0.026295715765853798;156.0;0.24657103706100464;0.1615208244777783;0.02614570666563764;161.0;0.24584200715772375;0.15403016364992161;0.02377742025429411;161.0;0.2435100776756019;0.15775443679403955;0.02496525854590715;156.0;0.24778441321218855
0.10855474619132843;0.011822160308274899;156.0;0.1869453581162755;12.0;0.11016281391783361;0.012174996249002527;167.0;0.18709037005171505;0.10670101318913372;0.011421939554185034;169.0;0.18042286498323432;0.10834879262141837;0.0117776311159593;159.0;0.17793988275399944;0.11039505772844707;0.012226343921652697;163.0;0.1759255905676025;0.10016151387806627;0.01006460572695828;158.0;0.17033420849296677;0.08884963090593509;0.00792006896829378;163.0;0.16723051680132314;0.09929755295587812;0.009889733002781868;154.0;0.1751752640150291;0.09867368447894365;0.009767374649250277;157.0;0.16609661812180876;0.09534855558064834;0.009120494824398287;160.0;0.16592155775770412;0.09209656015532296;0.008507476284389429;162.0;0.1653471620321152;0.09053902388084002;0.00821965342706166;159.0;0.16422359779339227;0.08961724531073961;0.008054056048937238;159.0;0.16502397537263278;0.09181715993360713;0.008454696795660426;153.0;0.16833662317652706;0.09747050394155728;0.009525457920378986;158.0;0.17174518291487567;0.09873603055157713;0.009780589171841027;160.0;0.16536230072336405;0.1396095727300744;0.019546510328149358;164.0;0.22708954029647646;0.1490300991446557;0.022272861538938524;163.0;0.23207355999857507;0.14904414369996666;0.02226883365634681;156.0;0.2298389347885584;0.15495162403847265;0.024066592107479322;146.0;0.23204627381868656;0.163951762582077;0.02695131205024585;147.0;0.2361171594601887;0.15175627473647788;0.023087078744363103;146.0;0.22964691977437973;0.132975030347961;0.017731049879809654;158.0;0.21983493214887107;0.13695315207023245;0.018810153821126444;164.0;0.22197295245819787;0.13058635080492328;0.017108504429476666;168.0;0.21402813807551396;0.13715007192410386;0.01887160385457999;164.0;0.21504695949611285;0.13951771227380047;0.01952823488715652;161.0;0.2160397649689749;0.1346024633842907;0.01817469065886737;168.0;0.21572698347557712;0.12818322462839343;0.01648051437628964;165.0;0.21497130912399973;0.12673515582760742;0.016108118794425766;165.0;0.2155684180299571;0.12205452623696982;0.014942021752503481;161.0;0.21331676469936714;0.12462864499230594;0.015582629524870445;163.0;0.21143082950445452
0.06443171132191057;0.004164580820809089;154.0;0.13207921932466601;12.0;0.06825580685071332;0.004674020403638382;168.0;0.13262437463667592;0.07620401752746396;0.0058261730442609695;167.0;0.13381355267672165;0.08455437575442303;0.0071720184068428;160.0;0.13575355761359886;0.0841768346611234;0.00710574981646894;163.0;0.13614103035280825;0.07460218842784057;0.005581020560928976;161.0;0.13287691251339126;0.06669354742785477;0.004459240477403243;165.0;0.1309183266772557;0.06126662650773996;0.003765983486139905;149.0;0.12903676714228315;0.06179847616354442;0.0038315936373370207;159.0;0.12490952819052856;0.059779581170790644;0.003584284619275914;160.0;0.12345029410818989;0.05967994150525785;0.0035719990039940535;151.0;0.12260758349427524;0.05560021388222818;0.0031005947183791014;155.0;0.12014804257550421;0.05305486861227173;0.002824227797899249;146.0;0.1206239185184969;0.054301699511568685;0.002958377399860738;145.0;0.12273013178095014;0.05813758607025856;0.0033912630063453178;145.0;0.12631393299853746;0.05838260697855569;0.003419557077068217;149.0;0.12376742931933832;0.10150018698356664;0.010335401448907267;166.0;0.1907253802192607;0.11404735348210832;0.013048952619303543;163.0;0.19405937208920743;0.1243185202344412;0.015503555509215873;154.0;0.1960035096952638;0.13435199243967808;0.01809944196567479;148.0;0.19864186602292203;0.14174481323794755;0.020146388187736772;150.0;0.20027110176064597;0.1303053766460965;0.017026043229618;152.0;0.19530799116302974;0.11213896327129405;0.012613185237812685;166.0;0.18788771686298877;0.09887411372368675;0.009806967732534439;176.0;0.1854035778359935;0.09987997517900642;0.010007608413386928;169.0;0.17789558751489074;0.10522886529756546;0.011106984957257302;163.0;0.17875426140892758;0.10691346631869755;0.011465099977546406;162.0;0.17977890365699606;0.10621752111729915;0.011315323725891169;168.0;0.17958775651004844;0.10701274081080538;0.011487532012679696;171.0;0.1803204270595209;0.10806612412410153;0.011715044942118157;172.0;0.18313656272262224;0.1063232822470831;0.01133944775603216;165.0;0.18270750070410086;0.0964249025142881;0.009327910115173189;159.0;0.1754491634246507
0.12421004866203504;0.015475935755224062;150.0;0.1955659124747805;12.0;0.131821997147549;0.01743265515279053;152.0;0.19805532392621197;0.14529205552958027;0.021178353051408375;160.0;0.19873158525423512;0.16246531003553033;0.02648125001124767;160.0;0.2025130168451185;0.15780297854705375;0.024983353425994535;161.0;0.1998366422357709;0.13649333152954182;0.01869022831120705;165.0;0.1920951152588733;0.11878728432414419;0.014154757545018026;161.0;0.18685797049921724;0.11490960940648003;0.01323675413586906;143.0;0.18679313333081163;0.11277093127161765;0.012740735261079276;159.0;0.1749446303346283;0.1144387020386695;0.013125239330410767;163.0;0.17476986317045695;0.11770298029696935;0.013887876605410715;154.0;0.1754637464040725;0.11396341805960132;0.013020351025564782;156.0;0.1749398056887807;0.10910177424476214;0.011929782250575827;147.0;0.17649131375558527;0.10698058974225234;0.011471382246200774;150.0;0.17821561763186322;0.10921052299689137;0.0119561187852099;147.0;0.18113233245570684;0.10402824842262041;0.010843984916626718;153.0;0.17400758857885204;0.11674770535657149;0.013674256589774786;157.0;0.21531391149242765;0.12782490297938276;0.016391985441642942;160.0;0.21676021593236205;0.1354225365126096;0.018397194266530078;154.0;0.21553277770980156;0.14594570841118287;0.021368119439296486;152.0;0.2169722859906916;0.15553375546076265;0.024269311605942437;154.0;0.21796854750704187;0.14237377567283802;0.020336257138091857;156.0;0.2106042725213089;0.11906211479624274;0.014221769075500497;168.0;0.2011601701881836;0.1173929996673255;0.013826357638535333;174.0;0.21199966940075804;0.1030937846160109;0.010653857405005752;162.0;0.18731005986627292;0.10746798360381177;0.011574990726911786;163.0;0.18804017019126415;0.10879729419395293;0.011855684787001742;163.0;0.18883297882479536;0.11096777298671272;0.012335586283309562;168.0;0.1900082928780318;0.1137162689348354;0.012963082226045586;165.0;0.1936750666408581;0.11691258685517156;0.013704754314656856;169.0;0.19678740805142758;0.1147703386960046;0.013206704544037046;166.0;0.19544492175940875;0.09943964241456084;0.009915578489981413;157.0;0.18595504358662493
0.14925977234283713;0.02234868110278548;151.0;0.22315714237648734;12.0;0.15161903960583448;0.023061370443399735;149.0;0.22340890395037863;0.1581325953028132;0.02508652801163746;144.0;0.21966642895285718;0.17286229300035358;0.02997878891390314;155.0;0.22213638939107824;0.17184419630181832;0.029626561085792407;155.0;0.222077089995835;0.15193807403260146;0.023160586674458805;161.0;0.21451150901051688;0.1346320570587778;0.018184959832273362;150.0;0.2097502234941238;0.13993420697303435;0.019644821003050438;146.0;0.21383463711634404;0.13609367811816603;0.018579226971173392;158.0;0.2019507000623749;0.13805311642121126;0.019115893732401933;157.0;0.20290769997161576;0.14040370827581683;0.019771259401961647;152.0;0.20426368454298482;0.13945524921239075;0.01950716982416489;152.0;0.20420089084336443;0.1365726187723801;0.018712004418468244;153.0;0.20473345111379807;0.13575682350286597;0.018490053259749298;154.0;0.2067672349536697;0.13803264672975238;0.01911534964357179;154.0;0.20919373990370427;0.13129566859515157;0.017294878183778617;158.0;0.20090906154022556;0.11835608250969534;0.01405265908384559;161.0;0.22009071420801907;0.12163291148504383;0.014842864397801468;168.0;0.22029214256932006;0.1227314973134385;0.015110646611994119;164.0;0.21933314410805985;0.13318846163894577;0.017788915723070155;171.0;0.22464308231633784;0.14386749127412923;0.020753093233253143;171.0;0.22977892528293925;0.1313042285114106;0.017287977775644003;167.0;0.22252196112865288;0.11102853673402098;0.012365818588187244;167.0;0.21258056839049383;0.118758786595173;0.014149524293144781;171.0;0.2206899263397652;0.10078136415324163;0.010190243911832582;164.0;0.19736641460992846;0.10640919718758442;0.011358706088711661;169.0;0.19696616358038013;0.10654412517664531;0.01138786126333014;169.0;0.19685883297912016;0.10484123885397234;0.011025510571657722;175.0;0.19701715870592096;0.10218423907439486;0.010474987143749698;164.0;0.20009850063354126;0.10365658232391381;0.010777455061702008;162.0;0.20193904430392492;0.10206644921071874;0.010451346826113221;165.0;0.2002761177074565;0.09500800749126222;0.009055957964768114;161.0;0.1965375761566403
0.17620432170775036;0.03113795376394459;163.0;0.23730100734190468;12.0;0.17271798757303733;0.029924292029889374;163.0;0.23609849920570564;0.16472462781196784;0.027222674297721464;141.0;0.22972385652788624;0.17060762051778086;0.02919824893545486;146.0;0.2315881602750241;0.17403950871703577;0.030376697630360668;148.0;0.23448457724388677;0.15459283845188349;0.023975894918391867;150.0;0.22508533451849086;0.13695323795059033;0.018816951351709688;146.0;0.21956595410994004;0.1575060574334455;0.02487594761260299;160.0;0.22711179895344863;0.16034352292375964;0.025749680982555607;157.0;0.21586010850003748;0.16027521180585858;0.025735686015867558;155.0;0.21565663670103977;0.15776187469345965;0.024944002989988955;152.0;0.21603466394977508;0.15690037257886955;0.024672710575137407;153.0;0.21666706796425345;0.15576503838611216;0.024308903208376847;154.0;0.21662447546286998;0.1596299716423062;0.0255343228467139;155.0;0.2194988012945321;0.16562953872704309;0.02750526237327617;153.0;0.22372258503859363;0.15611484476161325;0.02441129394333185;161.0;0.21555880346340245;0.13161277311620814;0.017378836436090367;148.0;0.23076013764291844;0.13918961851856315;0.019437535460641694;153.0;0.23229907561138866;0.1356335412933821;0.018456872662579806;155.0;0.22657301197019913;0.1473278741550114;0.02177676949390874;163.0;0.2297374237902646;0.15997336690379743;0.02567367106313965;167.0;0.23531046579701223;0.14490337243683377;0.021062290920201388;167.0;0.22980837118802694;0.1200622575942853;0.014462164902816297;163.0;0.22065293350325235;0.11832038444383368;0.014045469758378304;151.0;0.22868692898804518;0.1097331403346862;0.012078169957130382;161.0;0.2130634019337419;0.11566386709026093;0.013416934355434014;167.0;0.21274311591773673;0.11429520607694243;0.013101268364971502;167.0;0.21121397008425724;0.10709533288583556;0.011498939143237005;164.0;0.20860143686170185;0.1004679392519239;0.010122089162583902;155.0;0.20963784196065005;0.09985389485838475;0.00999772793966658;146.0;0.21175482819611094;0.09952332459701341;0.009933410105573387;148.0;0.21119070457073144;0.10345106356785355;0.010735375092680317;145.0;0.21168435576745423
0.1763058887261997;0.031175429293995416;159.0;0.24734879025084228;12.0;0.17489894773167006;0.030672594406077502;160.0;0.24584381867572394;0.16996625422518227;0.028947108963722927;149.0;0.2382415620192311;0.1883917092784864;0.035557190058162186;152.0;0.24405229839411052;0.19711389701503287;0.03892855829468561;152.0;0.24839395682524934;0.16878437634561602;0.028529298027432783;150.0;0.23628684737542838;0.14300984489988025;0.02048518892167392;151.0;0.2273427970729546;0.15799169633720447;0.02504264935126951;155.0;0.23715553891095215;0.15652718058457415;0.0245756394294304;147.0;0.22121353253637627;0.1556993857796722;0.0243167910103764;152.0;0.2208340615962632;0.15239147845132392;0.023295281117798404;151.0;0.22199892467451884;0.1517914241405523;0.023112464459060802;150.0;0.22402423728629797;0.15266964418382273;0.02337963376659396;148.0;0.2256751206277213;0.15826697728703992;0.02512896180897065;152.0;0.22894737670946624;0.16440880375880593;0.027114997118690337;146.0;0.2321436220026169;0.15195275916503628;0.02316389325583528;154.0;0.22018329367358078;0.16586103529570448;0.027599305310298874;152.0;0.2558912495618352;0.1760519152277337;0.03109501983815683;153.0;0.25927307541639694;0.16962610017688654;0.028867681995492944;152.0;0.2507760033868674;0.17908848513424894;0.03217698048016534;153.0;0.25194253467889854;0.19251076579520698;0.037180347921297534;160.0;0.25646613099933013;0.175143431352061;0.03077633211135423;164.0;0.24738378532018312;0.1434279000837018;0.02063777068804193;163.0;0.23113531805985338;0.15119591907053376;0.02293504629207613;150.0;0.2492774753619513;0.11861466516161165;0.01409977232843158;160.0;0.21581349499085814;0.12285063664661183;0.015122489633151564;163.0;0.21711517111781314;0.12132241375295116;0.014746689206962194;160.0;0.21584656098920196;0.11556981918864702;0.013386575940908139;154.0;0.21255738654391781;0.11063739018780243;0.012270304286267278;147.0;0.21108982143104238;0.11092819365063072;0.012339830702365055;144.0;0.21351674994564532;0.11334557797368898;0.012888147589299744;147.0;0.21474633626017106;0.11386229776182245;0.012996402843285008;145.0;0.21397743277478828
0.15970071503225033;0.025582553845451914;162.0;0.264479633722141;12.0;0.16479984638262546;0.027242272467862694;165.0;0.26441780044999375;0.17329681462442323;0.030127722958767995;152.0;0.2585900360338032;0.2061712512666955;0.042641875743302304;154.0;0.2652838994205612;0.22031138991552748;0.04869136212899971;153.0;0.26898157486286395;0.18818223082677224;0.03552056854231711;151.0;0.25578699229189966;0.16076048133694681;0.025919232636192797;156.0;0.24389282753659164;0.15049724776763926;0.022721699699223722;157.0;0.25420804915254674;0.16079493555301375;0.025939489977042606;150.0;0.24068243612413384;0.15719244660389473;0.0247901916202061;156.0;0.2409566728417456;0.1581275709714369;0.025085793722743128;155.0;0.24357360464487227;0.1570193202611207;0.024734910852873125;157.0;0.24470315177770896;0.15589980489308816;0.024380568151912002;157.0;0.24554192292435453;0.15471808665035913;0.024015617386906055;164.0;0.24847285313884768;0.15157844336172477;0.023049937658478688;162.0;0.25067701790196806;0.1495949541894691;0.022451391506308538;157.0;0.23481749232451274;0.19071987277653668;0.036481370307785754;160.0;0.272236380767697;0.19588223003827604;0.03848851658502676;164.0;0.2720474376047187;0.19373778646533907;0.03765631995400352;159.0;0.2657715670981149;0.20433761332775485;0.041888537023956174;160.0;0.26943847341081417;0.21850749152081825;0.04788977844564864;164.0;0.274485364243743;0.1987468344795073;0.039612726006227186;163.0;0.2639907095957652;0.16462933736242866;0.027191179769359527;158.0;0.24406535481690148;0.18556204855022;0.03453254166111801;159.0;0.26796928987379376;0.1406789058040469;0.01985267957917606;164.0;0.22265593489436564;0.14639474657954066;0.021499076092852006;168.0;0.2238907628288129;0.14695197799110607;0.021661792471401067;167.0;0.2231652387610916;0.1409073006016573;0.019916808654963713;166.0;0.22130595751395657;0.13584150739250372;0.018507089484113216;159.0;0.22192195578673762;0.1342295092360037;0.018070602849030858;164.0;0.22346346787047247;0.13230815835783402;0.017560139627201203;167.0;0.22256994910408348;0.1343139431602327;0.01809650527921048;159.0;0.22036069607974762
0.1875726412858357;0.035295643492971644;164.0;0.28004191160654035;12.0;0.19771500757043828;0.039209458329526756;161.0;0.28085628085382597;0.2097529888455232;0.04412078234518701;152.0;0.27982163091186424;0.23779573300177428;0.05671055800715192;154.0;0.287262106481737;0.2527772313153067;0.06407203091375151;155.0;0.29059145862204605;0.22035200801677068;0.04868507800538781;155.0;0.2765106622788369;0.19027254987406342;0.0363043270856244;162.0;0.26350574217785866;0.17038229305667674;0.029123238327092585;157.0;0.26959103562521175;0.18642146849130234;0.03485108288917996;150.0;0.2599042046975599;0.1851642899806854;0.034392333812479255;147.0;0.2616052493690288;0.18948727530013773;0.03602263466564678;151.0;0.2643270815614459;0.1862527045317937;0.03480420663994548;157.0;0.26428664068515656;0.17942979634483802;0.032300156853142734;164.0;0.26300330220872437;0.17339415865381524;0.030164547682968845;164.0;0.264971883803685;0.17158398299594393;0.029538331055622383;162.0;0.2684565111130071;0.17252265279366757;0.029846876036529305;155.0;0.25337304696508917;0.2084106118500778;0.043561071459839174;166.0;0.27418368851051333;0.21854476382592805;0.04791230256558409;163.0;0.27500937598345104;0.21565678068639474;0.0466435621605566;161.0;0.26916341438310665;0.22286953384558866;0.049822275134812744;162.0;0.2699902047351141;0.23598639362734547;0.055862731605038594;163.0;0.27356454078408554;0.21954294079273076;0.04835611970512813;165.0;0.2661948974488531;0.19274092068674295;0.037269231284821715;159.0;0.2539611752678418;0.20149770153244007;0.04071306162654898;167.0;0.27091379861793796;0.19785330098563136;0.039271763055939934;166.0;0.2423259290104229;0.20981855885120534;0.044167570081874975;172.0;0.24270712009495232;0.21322597462952872;0.045612852666682885;172.0;0.242628713826644;0.20824891041667418;0.04350932920219307;170.0;0.24195065017564835;0.20187897887619588;0.04088865012401227;161.0;0.2449855317647619;0.20024218721745912;0.040226691452120426;161.0;0.24758575744935815;0.19160019170649775;0.036829326696812485;159.0;0.24724219740882175;0.18775487370971813;0.03536688414599882;164.0;0.23999665799257736
0.19954225042962156;0.03991769055813942;161.0;0.2800981082666421;12.0;0.21271068906040175;0.04535713724372755;154.0;0.28146596124332307;0.233143639880707;0.05450267114481995;148.0;0.28532380952929265;0.27174458884739117;0.07407244331157084;157.0;0.2984255893840396;0.2925627248135288;0.08584963439628437;159.0;0.3052471292363901;0.2575603321450361;0.0665353650341277;159.0;0.2910780076676731;0.2203401568827275;0.048690907949352845;159.0;0.277597827524634;0.185091586406906;0.03434978979920803;154.0;0.27237200122130323;0.2040109100128738;0.04174775092221026;153.0;0.26376336532118444;0.20054491227610705;0.040345190157855;144.0;0.2649491067690095;0.19880781929743407;0.03964751904621049;145.0;0.2654230310158473;0.1917536858081846;0.0368858804287906;147.0;0.2634234534779306;0.18370372989447745;0.03385602121668792;155.0;0.26264451499548164;0.1814985594250601;0.033045138748071495;156.0;0.2668524169482242;0.18539758112390123;0.03448038149597186;151.0;0.2719450069308127;0.20022324969880018;0.04022042342337829;157.0;0.26152129177006495;0.19057372118800525;0.03643691349338147;155.0;0.258167513032834;0.2037045770291707;0.04163119001554504;153.0;0.2650086153674756;0.20739524248308738;0.04315344304278217;154.0;0.26717040484028287;0.22124089362713287;0.049107692376220605;154.0;0.27235861949267454;0.24260947070818448;0.05904920016260384;154.0;0.2791844569678117;0.2292765917479438;0.052740056049564374;157.0;0.2719775474751423;0.20035792714468667;0.04027447534401138;154.0;0.2598898762607832;0.17799775311044558;0.03178601100911229;161.0;0.25203798006202754;0.19265767016048213;0.037237377629938354;155.0;0.24340000144948076;0.20334723323602155;0.0414852307094256;161.0;0.24287270582151324;0.20596876520879795;0.04256150074086579;160.0;0.2424650880300125;0.20101627221210355;0.040539605875342326;152.0;0.24134347539701384;0.1941590701233623;0.037820950768797504;150.0;0.24210726440808134;0.19302826259884276;0.037381771574492004;149.0;0.24521541548102835;0.1857179313694919;0.034603971783853923;142.0;0.24667061788745762;0.18518156914644002;0.03440368213515831;153.0;0.24246086462155153
0.21438404826031096;0.04602169440370616;175.0;0.28980517591720306;12.0;0.22700782521803362;0.05162773424619436;178.0;0.29178196344774576;0.24827823925870807;0.06179558242236305;170.0;0.2937158938615987;0.2871734416024201;0.08270312013422837;162.0;0.3034309267326877;0.3029890999370937;0.09207266818645655;164.0;0.30621011797046893;0.2701822885049731;0.07320441893010171;158.0;0.29163775619614696;0.24132790927533448;0.05839486804715406;156.0;0.2788607109143333;0.2007716987610417;0.04035110478138846;174.0;0.279371611608541;0.22782670121266904;0.05194358801531088;160.0;0.2689742983995187;0.22317599386815665;0.049838640482409394;158.0;0.2696763941246328;0.2194501364269603;0.04820791986400406;161.0;0.27091257573895206;0.21238150093709815;0.045151195433588816;163.0;0.2698390703642743;0.20205006718796942;0.040867445359059805;167.0;0.2693841738396935;0.19967793056237348;0.039915632795615254;169.0;0.27426598072830016;0.2013842109458471;0.040579743878496104;169.0;0.27810977899610784;0.22258586934198596;0.04959261074187926;165.0;0.2667892693877548;0.1554094888128172;0.02423062868103147;158.0;0.24154263728668526;0.17033429468932385;0.029107227837211487;158.0;0.2529861859392389;0.1949763933234287;0.0381396439137746;159.0;0.2635839065046653;0.22842829498205425;0.052350012541450504;156.0;0.2749207778855136;0.2589523472736372;0.06727547814100596;152.0;0.28306638358206043;0.23411428148610272;0.05498811654205779;153.0;0.2724562604788046;0.18506996725396277;0.03436254088047047;155.0;0.2536026387513439;0.13874261775561536;0.019312339933351453;157.0;0.23856852096221967;0.13197443997126118;0.01747413968096848;157.0;0.23104089196924926;0.1355565336939098;0.018435418718299682;164.0;0.22981027344086405;0.13669156791522788;0.01874529531600469;165.0;0.22880850188662707;0.13247523568540573;0.017606606838192044;159.0;0.22776166290893557;0.12871273965044952;0.016621078261822388;157.0;0.227084605140235;0.12662636130918947;0.016086634730581546;153.0;0.22770656273171047;0.12405421441744521;0.015439621024493078;149.0;0.2269413696813072;0.13077601306809408;0.017158263846425024;159.0;0.23094767808747804
0.16660680818161241;0.027847434600567877;160.0;0.2177269464740522;12.0;0.17496045875256538;0.03070947993818305;164.0;0.21779739407418278;0.18519549753177633;0.03440508655095078;166.0;0.21595071984398426;0.20388868495139867;0.041691215376608026;169.0;0.21843597665869824;0.2083342570824566;0.04352125093577584;170.0;0.21609073284565988;0.1880056644987891;0.035450067555547464;159.0;0.20670361898009773;0.1754780025914909;0.03088929372733769;160.0;0.19897561024770988;0.15343079195126313;0.02361528300367249;168.0;0.2080486589448283;0.16876024489220992;0.0285724538715799;154.0;0.19844510409339858;0.16793181912169583;0.028292371890578014;152.0;0.1999655119127035;0.1686219586053063;0.028526277019638595;157.0;0.20234297972923163;0.1654262796218781;0.02745438636551165;164.0;0.20276712146304557;0.15621530720741572;0.02448270135089893;159.0;0.20190351564033154;0.15249597209347435;0.023329533191252003;160.0;0.20415329074496766;0.15295380415467316;0.023470414339457894;148.0;0.20568286742059982;0.16184103909666112;0.026267860692244092;154.0;0.1955373500124594;0.12368762845512103;0.015323039936437386;153.0;0.2024305990583648;0.13965833950504555;0.019547893953419323;152.0;0.21231020616019353;0.16156179729553624;0.026181776191330823;155.0;0.21972212589049137;0.18809585278065438;0.03548804747401249;149.0;0.22657329595753908;0.20802950444122964;0.04341567804878262;145.0;0.22982160859805162;0.18300519103717527;0.03359845918001235;144.0;0.21998386787139848;0.14123909928569314;0.020011300048813782;145.0;0.20477928993532318;0.11348749353731859;0.01290323050818002;151.0;0.20277536925389988;0.1043905185524285;0.010928772682904068;151.0;0.1933026196937272;0.10864734868467049;0.011838066355148127;151.0;0.19251649273016952;0.11198473462026703;0.01257081291025847;155.0;0.19254303940876646;0.11323572617710825;0.0128559181756148;155.0;0.19194474833502342;0.11581145420081079;0.013448339404425849;156.0;0.1925014569779519;0.11545171204150925;0.013366424798152353;150.0;0.19140759777884664;0.10941771493031298;0.012000686652425015;148.0;0.18845478041336225;0.10161127136299093;0.010356311296108674;156.0;0.19213717836294333
0.04159775616630398;0.0016985420225335917;164.0;0.09264953253733012;12.0;0.04235527938707425;0.001761156420636386;160.0;0.09030322010873593;0.03777676138370244;0.0013920654460886763;159.0;0.08550746826005744;0.0367945546205727;0.0013308063610445713;162.0;0.0842430921362428;0.03472902558514699;0.0011800475660274003;162.0;0.08083800092993604;0.031678469311162416;0.0009786065422083495;158.0;0.07981522177424968;0.02801206349193009;0.0007648105047162802;161.0;0.07842040416255947;0.03683095967497084;0.0013319691218816947;168.0;0.08896530696654374;0.041306877982230004;0.0016918299080468607;158.0;0.0847261771768013;0.041612298655826316;0.0017088649633290889;151.0;0.08466310643865278;0.043834784279915204;0.0018994872606020127;153.0;0.08499492578201628;0.04124547294228959;0.0016768100321599365;161.0;0.08475275843435519;0.039459240907697125;0.0015279027025751593;156.0;0.08366101466239606;0.037384787196251296;0.001369382445991512;159.0;0.08451333597602535;0.03818017703549698;0.0014253913844363992;148.0;0.08620092084600946;0.04105776922344925;0.0016718760012625238;157.0;0.08224486028184277;0.11010352957749239;0.012162901815976105;138.0;0.1926785445587435;0.11329404699199201;0.012878105411886342;143.0;0.19290160405366702;0.11571407649418637;0.01343321774361233;144.0;0.19078447245660504;0.12090230845190642;0.014665072857189232;145.0;0.189528985748553;0.12489505469511038;0.015646596886008658;147.0;0.18990519285899257;0.1159028235835898;0.01347179084931753;146.0;0.18524996050929096;0.10235572013914174;0.010507057413218444;144.0;0.1803924349338381;0.10789996335632107;0.011680630355452606;141.0;0.19023721348372397;0.10289633000781231;0.010620369592809207;145.0;0.1786923536018768;0.10872352737732337;0.011856755676258528;144.0;0.17917839925858264;0.11126761677052731;0.01241891892996275;147.0;0.17785941319200582;0.11174596727576751;0.012526910692187044;147.0;0.17666859975976157;0.10993687769728452;0.01212541726778239;154.0;0.177249019203279;0.11016615656890448;0.012176330112330271;151.0;0.17702344328107658;0.10540371425564246;0.011146389695344856;145.0;0.1759976686490625;0.09756281234043096;0.009547656948924068;143.0;0.17669688991029536
0.04694928925261134;0.0022077381887543254;172.0;0.1274688983653187;12.0;0.04612676311315649;0.002131826104936371;172.0;0.12626891923751898;0.04721718549478468;0.002233676683557555;171.0;0.12342801220899959;0.051355085203936814;0.0026426064584310687;164.0;0.12255361133825714;0.05109020730152091;0.002616619940043029;163.0;0.12160446520044438;0.04694938314075249;0.0022108409867024415;163.0;0.1199406372321703;0.04486975449948483;0.0020198180435283108;168.0;0.11948466995008503;0.04552695000123709;0.002076543558858984;180.0;0.12318076750769136;0.04398996373359369;0.001938784634550071;166.0;0.12088859215118568;0.04580850480908048;0.002102255074900098;164.0;0.12287200397568615;0.047945412104179186;0.002302263984945774;164.0;0.12450933194039901;0.04592746934484388;0.002113542979649143;167.0;0.12234016333397128;0.043779415005315334;0.0019209497906906242;165.0;0.11899491323726041;0.042261985809745335;0.0017900708052053578;172.0;0.12001779024066582;0.0418171754882731;0.0017496022228784664;173.0;0.11952126581568712;0.04173837651017357;0.0017460485795649154;167.0;0.11715097753246827;0.14313939128943823;0.0205379083549324;143.0;0.2222482708384323;0.14509035069588383;0.0211007051739545;145.0;0.22048499989079964;0.13819291370427295;0.01915027145915862;141.0;0.21170077298248297;0.13869148559183578;0.019288047838029978;144.0;0.20835776585825827;0.13974327543479872;0.019584392365019958;149.0;0.2079695505994097;0.12898808826651748;0.016683866707887036;149.0;0.20132510112565402;0.11483322864158971;0.013224052928876353;148.0;0.19406368929424797;0.1321379148612597;0.017504394893977742;147.0;0.2170262435855941;0.11851618154858357;0.01408982314305047;153.0;0.19006439834135172;0.12359094519171165;0.015322548543364569;152.0;0.19193778889517168;0.12531857609875527;0.015751913131412228;152.0;0.19106083362370133;0.12356932252897675;0.015313856445064753;155.0;0.18976816485724055;0.12084498857925322;0.014645997995412333;156.0;0.19046253957613204;0.12322720814211875;0.015230427766649028;149.0;0.19284184476171715;0.12256218837066675;0.015061475311483332;148.0;0.1943171035406263;0.11286654705570204;0.012778688322006997;149.0;0.18797216378436027
0.10370955573447106;0.010790802952876166;155.0;0.18327665059012782;12.0;0.10385565035708465;0.010820917175464524;160.0;0.184276369935987;0.10337787542240523;0.01071890752121636;164.0;0.1815336272360516;0.10352965493959786;0.010746557481058534;163.0;0.17907962942778047;0.10049029900205325;0.010123698178098214;167.0;0.17677257046386652;0.09364389175505645;0.008792912538351209;165.0;0.17303820027568143;0.08913487520420606;0.007968587085795278;167.0;0.17114045692228488;0.09610287554621592;0.00926600264082481;162.0;0.1753107978669093;0.08899162993082715;0.007944313342127569;161.0;0.16771169751112336;0.08845394420679299;0.007848563166332041;163.0;0.1687013591822628;0.0901615994443377;0.008153704567197037;160.0;0.16900160348788693;0.08832986766475934;0.007826921916497871;156.0;0.16611808972554112;0.08743783483676901;0.0076702808957605575;154.0;0.16511099683378982;0.08618366730924792;0.007451749745360209;161.0;0.16649915417688504;0.08733438164781585;0.007652204974020481;158.0;0.16771310854634822;0.08721629125884893;0.007631217594511356;163.0;0.16564061856707193;0.13640202155396758;0.018663988152082246;146.0;0.22783237264899597;0.14168681534861047;0.020140037270469577;144.0;0.22501003646960013;0.14747455412903598;0.021817775965965333;141.0;0.21902599674061463;0.15541028420058836;0.02423110865776876;148.0;0.2182513158657351;0.15451724304466388;0.023953646977706727;152.0;0.21738689912491757;0.13855804336412547;0.019261116029191443;149.0;0.21036555774105428;0.12187217791031366;0.014900725549797619;148.0;0.20320908774503477;0.13343988415607214;0.017860102146039777;157.0;0.22401498968975583;0.12056318614800747;0.014576304433954714;151.0;0.19937729390977024;0.12415707259143276;0.015456870890217465;151.0;0.20070536300684802;0.12609856937668304;0.0159452475478784;147.0;0.20124558277761884;0.12677562494086425;0.0161178344018826;148.0;0.20116591865745614;0.13152782585099243;0.017348781042098957;148.0;0.20493579069142118;0.138477799052329;0.019228898288143607;145.0;0.2088378532390906;0.1330657628890216;0.017757092372406517;147.0;0.2083230544798846;0.11516561522828686;0.013302676372519716;150.0;0.19725583778745287
0.15584584324416326;0.02435896571224303;160.0;0.23343415144117932;12.0;0.15776829396870165;0.02497016996037903;159.0;0.23415383881561977;0.15877923651480277;0.02529331363678163;158.0;0.22975649940218465;0.15913187057780515;0.025405704343800715;155.0;0.22651796067635915;0.15227997944117538;0.023265058309072207;156.0;0.2210700057275193;0.1378518570285219;0.019065024410521585;154.0;0.2131490787797531;0.12363145630089223;0.015332062712281392;154.0;0.20512268009011164;0.138560965638222;0.019255392452902007;162.0;0.2189701989666683;0.11760611497370423;0.01386373275318633;162.0;0.19737139595836592;0.11759407045150991;0.013858833892717824;157.0;0.19729950885926548;0.11900712005959735;0.014192491489373278;155.0;0.19744614006998124;0.11866430507116547;0.014113018045377795;151.0;0.19740061341331552;0.11970773914767509;0.014369017073802717;153.0;0.19992587262077743;0.1232680511043841;0.01523652847003847;150.0;0.20423613199952875;0.1298057730966318;0.01689551118203693;152.0;0.210722409115309;0.11380986895805321;0.012987253236952899;157.0;0.19549608504596827;0.11518863439491954;0.013310007051854759;151.0;0.22350322152073304;0.12249541324778053;0.015053144267159889;162.0;0.22262775322818587;0.13785403859702758;0.019065556418113142;159.0;0.22071444511978067;0.15247048934138552;0.0233231549841011;169.0;0.22216723929068255;0.15581483233074417;0.02435759273665702;161.0;0.22278120290364234;0.13897508393823862;0.019375296030646014;166.0;0.21492886397664926;0.11907292759170349;0.014223460270525838;161.0;0.20604118207125155;0.1197783366288491;0.014390704399787875;160.0;0.22084795353584338;0.1119391841704268;0.012570834127247976;158.0;0.19964000376372085;0.11526795295531145;0.013330027180039188;160.0;0.19955796883681964;0.11759891244871987;0.01387443255776003;154.0;0.1994141919508766;0.11945532402807561;0.014316173703472641;152.0;0.19976054623799053;0.12457963062071797;0.01556986755229802;154.0;0.2041018124991832;0.12947858714151417;0.016816028121874837;156.0;0.2068208939006374;0.12125934941398903;0.01474731695651191;154.0;0.20551075021620543;0.1064589133621035;0.011370260489985332;162.0;0.19823277962367186
0.16698276224793585;0.027972855256448364;166.0;0.2571179142581866;12.0;0.16963942971059318;0.028868005081591583;164.0;0.2583145258601851;0.1702201462165997;0.029067640634446733;153.0;0.25173073817477665;0.17511790666675456;0.030767404926959188;152.0;0.25020132603833867;0.17398523437143493;0.030370662106489112;147.0;0.24925939514674456;0.15843466139111168;0.025184498340174503;144.0;0.2401688000816353;0.1404469489562752;0.0197906214634329;151.0;0.22907941361909467;0.14474682916237866;0.021016098222979708;163.0;0.23792088498821032;0.1161214796327625;0.013528798763745882;174.0;0.20946396979587506;0.11680816710586703;0.013689009465880553;169.0;0.20956034023395917;0.1173952919151695;0.013827432997859513;169.0;0.21028287279993077;0.11656995289840917;0.013633553697304512;169.0;0.21084485272272244;0.11922957256320402;0.014260404118507925;164.0;0.21463912141003896;0.12659995201870708;0.0160791273986607;157.0;0.22085779078974413;0.13541926912356417;0.01839599196179371;160.0;0.2282984859910612;0.1135314879859096;0.01293134030821448;167.0;0.20961265313920882;0.13528334139078182;0.018352647556647988;139.0;0.22659249178489427;0.13770272939223693;0.019020689731697963;158.0;0.2261615891196633;0.13696358579783358;0.018819676700489365;156.0;0.22006227174453646;0.14772368576144168;0.021891103202883733;164.0;0.22225890376420798;0.1580842185885431;0.0250605410686258;156.0;0.22553461068476321;0.1450022127420067;0.021089206396995866;163.0;0.21848559325523634;0.12527446773420783;0.01574159416533516;155.0;0.20865094329258702;0.13308528823233115;0.017766323178741186;149.0;0.2246834433785891;0.12036845653070577;0.01453156209555866;154.0;0.203964854504225;0.12621718374197122;0.015974318135483577;155.0;0.20532035664760268;0.1294957733424641;0.016812929976300267;155.0;0.20544093557174853;0.12782618400081094;0.01638509114750713;154.0;0.20335890200572604;0.1256802070260896;0.01583402820941906;153.0;0.20394823960200867;0.12348117111718705;0.015287761354775588;153.0;0.20355195055754746;0.11822959615686554;0.014020713056645224;154.0;0.2043457681033375;0.11222310361032585;0.012630377899959896;158.0;0.20096752429480394
0.18896770786180414;0.03582335201357214;156.0;0.2678182741914911;12.0;0.19363437787614554;0.03760603826146872;157.0;0.2690507074686626;0.18809266466995758;0.03547020634065226;154.0;0.26092031292667306;0.19487766180891677;0.03807224208060937;155.0;0.25919671828903085;0.20173158654162224;0.0408023774606551;154.0;0.2611458784538722;0.18210106792155448;0.03324493765484089;151.0;0.2514471854099776;0.1600101370054406;0.025652267023226802;158.0;0.24114033895754025;0.1647240891922357;0.027222108845798395;152.0;0.25240322842840024;0.1359358823498756;0.0185370154169224;162.0;0.22726752993914226;0.13468680032707334;0.01819895326752159;162.0;0.2276545972872899;0.13721092234929855;0.01888596748539987;164.0;0.22982617815492382;0.13871619307806887;0.01930419177191371;164.0;0.23115866590933218;0.13793276228580265;0.01908706238146958;162.0;0.2336202336872312;0.1398340190931039;0.019617450213202537;159.0;0.23686809731280187;0.1509207170106189;0.022850979608771478;161.0;0.24287619644073982;0.13552092114786662;0.018425417401465617;160.0;0.22781311944953989;0.14103509493989047;0.019954366785832563;140.0;0.2336684288154537;0.14629390332243947;0.021469162960719025;142.0;0.23400113490278812;0.1462771769398174;0.02146391751359328;136.0;0.2286538546695429;0.15549745037262777;0.024257270624647952;140.0;0.2299084396200713;0.1656469500354731;0.027528047170805776;140.0;0.23262664988695514;0.15300974002615234;0.023487170328089457;139.0;0.22598435654076532;0.13096204659367353;0.01720690783909059;135.0;0.21642124070451765;0.1373382681575376;0.01892332193538962;148.0;0.23238723569349093;0.13133617295031122;0.017304817638709686;145.0;0.21392137024474167;0.1384060172568751;0.01921846908173041;143.0;0.21576718183243979;0.1423196387647465;0.02031957224766207;146.0;0.21602080524120806;0.1408266781929343;0.019894357347946163;149.0;0.21433454408420027;0.13834081441887802;0.0191964263259744;146.0;0.21435251490370677;0.13403331621209277;0.01801922893396889;144.0;0.21283835094295464;0.12535855251990002;0.015760399553805593;149.0;0.2107373619298067;0.1238401529708771;0.015385127858283108;142.0;0.21033019141917558
0.20792744086332324;0.043358277484099504;155.0;0.2684491283641645;12.0;0.21835313064120254;0.047800106803238124;154.0;0.2744456203653485;0.22185004104094252;0.049330966640514756;147.0;0.2742453697572543;0.23774165533316136;0.05665811890283475;144.0;0.2773404873695279;0.2475459421268175;0.06145112860037946;141.0;0.2775648962097502;0.22048417359361855;0.04875817435867202;143.0;0.26381781276944;0.19077977068989732;0.03650209208167422;147.0;0.251853600825289;0.18788460236249124;0.03540424335329481;160.0;0.2586325202431438;0.16781143011645558;0.028228334199642935;148.0;0.24348996783089674;0.16599149019583506;0.02761837551341594;144.0;0.2438446787840567;0.16928768155774732;0.028714982466111746;142.0;0.24653146641893503;0.17158118684305512;0.02950454911710885;139.0;0.24746687931542327;0.16970843641748015;0.02885976761074768;145.0;0.24748842112828126;0.1620699481549731;0.026328223192293183;150.0;0.24803466438282484;0.16968623156419166;0.028867822936893363;158.0;0.2519888096708099;0.16306261840119926;0.026661884081790987;145.0;0.2425368367504891;0.1312082214196832;0.017254892290095462;150.0;0.23783008611034243;0.1404476883950925;0.019767619812484857;146.0;0.23963788083600743;0.1419191333350257;0.0201843667662351;142.0;0.23495831996597186;0.14735146642275582;0.02175738381487488;140.0;0.23409622076997072;0.15482410478467715;0.024027498517558782;144.0;0.23572037450286598;0.14386341799699393;0.020744086383655762;141.0;0.22864462627343038;0.12346261803868568;0.015278204958992864;142.0;0.2192421142017955;0.12490698018361684;0.015640461210030203;160.0;0.23441783997048254;0.12090813837019378;0.014658762156087274;143.0;0.2110454300314379;0.1269591854136627;0.01616145979859098;140.0;0.21201737601248788;0.13056184950404065;0.017084270808818608;144.0;0.21178691403732866;0.13083192459023568;0.017158918651190867;148.0;0.21118232536242498;0.13266090935710842;0.01763885221544084;148.0;0.21395618687473858;0.1337512891110335;0.01792973966349467;151.0;0.2167047127985261;0.12628729492413276;0.015984035877899035;154.0;0.21415108753654305;0.11648636177719422;0.013606849872858233;141.0;0.20904103459544418
0.22379428576742857;0.05024416686797072;165.0;0.27632752118362036;12.0;0.23320967564158515;0.05455693707873368;160.0;0.2806182987305163;0.2359907757250754;0.05585073501868819;147.0;0.27947496765246455;0.25451342745946887;0.06496115106613043;140.0;0.28570179076703694;0.2616543598382953;0.06864476221111293;134.0;0.28468707981874086;0.22955725335146704;0.052814774795637745;138.0;0.2709726227796242;0.1965707986170165;0.038740332234995796;141.0;0.259160731778875;0.2015245445859547;0.040737871413854376;164.0;0.2684375710196717;0.17390060768886378;0.030271922926831594;155.0;0.2480714259341512;0.17410750059606328;0.03034609705521289;152.0;0.24996749557218856;0.17823787829432763;0.03182556190555973;148.0;0.25289161559270673;0.1798330888792245;0.03241805623637957;144.0;0.25368240051116564;0.18285141946167935;0.03352550653072278;150.0;0.25633592749443573;0.1808896029564685;0.032817438704102184;156.0;0.25984812691861603;0.18847323033712288;0.03563174352831354;158.0;0.26441459343434776;0.16334444177400154;0.026735185641643584;150.0;0.243931068929417;0.15064108422686132;0.022767480804754436;153.0;0.26213895646790675;0.16739593916015483;0.028113767216287566;153.0;0.264088117221004;0.178299681401331;0.03189365560006356;157.0;0.2615428574798541;0.19456250027300795;0.037971796119818116;151.0;0.2635620992497336;0.20696206083785534;0.042966257521285856;163.0;0.2662962657773237;0.1857049139510263;0.034595489007266826;160.0;0.2563173463567577;0.15027522000617977;0.02265643782506712;160.0;0.24230094900134316;0.13909792294289294;0.019412180741786064;161.0;0.2517500350361686;0.11682319724618756;0.013684394431931974;149.0;0.22339032546746684;0.1214356876014853;0.014790974526761527;153.0;0.22381627650711725;0.1238264092839889;0.01538036080804731;153.0;0.22405833297267777;0.12424074523921871;0.015483241357508035;155.0;0.22421146660355756;0.12594722449374388;0.01591330157380871;159.0;0.22858301316602356;0.13158069296695712;0.01737014908707048;158.0;0.23303798320854835;0.12812165145511853;0.01646908671906332;160.0;0.2333489989954218;0.11499482776377191;0.013252898208020877;148.0;0.2228897666199122
0.21498890142188665;0.04637001311761498;164.0;0.28101378117808434;12.0;0.21899137107707145;0.04811188138325058;160.0;0.2800552638656043;0.21573917712139204;0.046673936745667416;163.0;0.27374203430188876;0.22947407917654786;0.052804209446399665;157.0;0.27666728272293145;0.23275830355134783;0.05432492794059966;153.0;0.27502582420420474;0.20455952225809867;0.041958607948587225;159.0;0.2629757740742644;0.1743286443861184;0.030480524841210343;161.0;0.2516612150933015;0.19038122354285802;0.036363366384630384;157.0;0.27244288269699746;0.16657200379147621;0.027832087097627616;158.0;0.24626431027288612;0.16856968597198216;0.028504361416284336;156.0;0.24928963828868744;0.17334212497673435;0.03013892385822237;157.0;0.2534215745009271;0.174170029160997;0.03043156608996836;159.0;0.2560481985882442;0.17555208473997078;0.0309123593216038;160.0;0.2609064599622056;0.17886957897467584;0.0320946816044499;162.0;0.26639549720116856;0.18602778380735022;0.03471639080378251;162.0;0.2710573155626626;0.15365181592136154;0.023679188935188045;158.0;0.23995143847377048;0.15333959357793886;0.02358812332769365;146.0;0.254764165254841;0.17230310620043174;0.02977988664171714;149.0;0.25360807018467846;0.1897722019601206;0.0361191089989188;154.0;0.2533618302494037;0.2112315400128252;0.044748672325303274;155.0;0.25817812055079453;0.22463326744398296;0.050611230773718784;160.0;0.2622332941513879;0.19826977615048172;0.03943248582270706;157.0;0.25073377331604174;0.15690518779245208;0.024697977412829215;156.0;0.23388100706661316;0.14029462389845856;0.019745049641708236;147.0;0.24137015390291805;0.12737854415481525;0.016278270861094582;158.0;0.2190506585103837;0.13442503770071426;0.018128771234899848;161.0;0.22086714980945885;0.13751444396272283;0.018971666999204245;160.0;0.2218628942976399;0.1370532849365174;0.018843999030875812;164.0;0.22275214782280758;0.13229592171206375;0.017557718845438056;164.0;0.22419610512610125;0.1317896934734406;0.017422460647127287;160.0;0.22485889106309895;0.12479909962617297;0.01562526291256094;158.0;0.22314172261270834;0.12258614799872228;0.015076562762709014;160.0;0.21741697991660972
0.1291617843490851;0.016737282031805117;154.0;0.203126083319447;12.0;0.13136729635543684;0.01731085167980999;148.0;0.20329485966892263;0.13475821282779213;0.018212459250022916;154.0;0.20002897012577364;0.1481995634933039;0.02200924112149086;154.0;0.20060669609050094;0.1535970999089546;0.023643033417349534;151.0;0.200820628672903;0.1392299607549045;0.019432228964288593;156.0;0.19166303923699965;0.11857611848607037;0.01410181683843724;156.0;0.18279385244507645;0.1152618616260895;0.013327545475684953;156.0;0.19592200901204726;0.11624443732668145;0.013532243168325915;166.0;0.17984888700433402;0.11699335359588618;0.01370971352705105;164.0;0.1806500912672715;0.11968119503056206;0.014358467248129796;163.0;0.1834688286852295;0.11876212122724299;0.014138251374400803;164.0;0.18579384756197279;0.11677333175541424;0.013674942820737423;164.0;0.18873794922634118;0.11566506459228552;0.013419077774608783;160.0;0.19219017871064636;0.11571279169925255;0.013431691722728132;166.0;0.19453571624344554;0.10756132373323597;0.011594457787336832;161.0;0.17621781530246705;0.10110094758323018;0.010253606114773597;147.0;0.17254586308878955;0.11279913362875116;0.012763371237899083;154.0;0.16995538698984392;0.1251143987110726;0.01570149554940621;160.0;0.1702833513116417;0.13899427437310952;0.01937449714837331;168.0;0.17437775672934527;0.14749022590261432;0.021810516133253476;164.0;0.17811270485329175;0.12975933545164067;0.016882399117327758;160.0;0.1716264983042966;0.10458375843636565;0.010970517978687373;155.0;0.16241398246114197;0.09433881860563216;0.008928913070295556;141.0;0.16659228251631883;0.10164026452236889;0.010364414977310435;152.0;0.16202365450305112;0.10853256071109531;0.011817261550269652;156.0;0.16505775771113185;0.11102463393690926;0.0123649735500881;156.0;0.16559349237068527;0.10983199978933857;0.012100328771078469;158.0;0.1666473136250937;0.10349190131526118;0.010739918527821427;150.0;0.16465944159327273;0.10017709412641967;0.010060734611502463;147.0;0.16301504735195263;0.09293874971369498;0.00866014152179173;143.0;0.16014936279962586;0.09500086272305229;0.009054361745758154;158.0;0.15880936710088994
0.07029650440123447;0.004957792194323385;154.0;0.1400732302715216;12.0;0.06623518348471169;0.004401170017038107;145.0;0.13660001878564215;0.061473209716663;0.0037912077058173334;149.0;0.13039864217791705;0.07045536836283421;0.004979459780429178;154.0;0.12928690108756888;0.07588666958507197;0.00577738844926364;157.0;0.12990407680343932;0.06630316135420736;0.004410624867111133;154.0;0.1259790161826452;0.05378312176681808;0.0029012553989713735;153.0;0.12132865657549755;0.05866663048909325;0.003452224036583424;160.0;0.13120054333165448;0.046432201221475886;0.0021629665044581615;157.0;0.11795410163377718;0.05154276001872774;0.002665360765201061;163.0;0.12018023849741087;0.06062321429378461;0.0036870909311078025;157.0;0.12484331300433284;0.05965462530883312;0.0035703553412484894;157.0;0.12443845554138554;0.0591297908177247;0.0035077975412522635;155.0;0.1252294143158438;0.056762654061947825;0.0032325489648590403;148.0;0.1268283036795829;0.05454437604719516;0.0029848152603404177;157.0;0.12805501143620293;0.04141264261688294;0.0017206315102164817;157.0;0.11738585451785896;0.0546106982975433;0.0029905537541400663;160.0;0.13115094164080104;0.06350939794300729;0.00404315620395786;161.0;0.13414913104588064;0.07107365526667093;0.005056438580288494;170.0;0.1359773682256848;0.07966057487640137;0.006348409315669414;170.0;0.13920740628771539;0.08451648243832466;0.00714268157543615;177.0;0.1402523630346575;0.07460379108176866;0.005569925383357722;169.0;0.13589630371723457;0.06224542838251866;0.0038792015375112843;157.0;0.13133641418954667;0.048183902705912204;0.0023280434991167854;155.0;0.1290717055732245;0.06617959274433645;0.004388739435377624;151.0;0.13285999544446422;0.06837269078988788;0.004685545261249322;158.0;0.1336471403357101;0.07133340656412958;0.005100873881325364;160.0;0.13312074431737544;0.07328383232731765;0.005383006682511311;160.0;0.13385435001805412;0.0741887225702813;0.005518186892718094;154.0;0.13255969726251662;0.07645969576649976;0.005861239746368769;154.0;0.13342962033436354;0.07167628850349138;0.005151346903646566;147.0;0.13221033456104112;0.06331972441376141;0.004019294907704679;158.0;0.13155605497016387
0.12349838544090644;0.015298364844838737;157.0;0.19822698459587942;12.0;0.13057633391521092;0.017101945461357952;152.0;0.2000461230649543;0.14595516571164793;0.021367535266911805;160.0;0.1977420106836343;0.17362755221023646;0.030236601427196697;164.0;0.20234293202648243;0.17940156654660122;0.0322813796289409;168.0;0.20220010683377831;0.15599897386159792;0.024409581179305764;168.0;0.19122772834994037;0.13171500595041455;0.017402468646765402;167.0;0.1812091097440496;0.1080185216424391;0.011706184914550706;159.0;0.18226168545496477;0.10648623907586532;0.011376064537597154;151.0;0.16560489941030487;0.11105032172968059;0.012371970098642512;158.0;0.16743010561377672;0.11590130590486457;0.013475506213461833;151.0;0.17148055305677265;0.11614935341218058;0.013533822130648519;154.0;0.17190621104917525;0.11247098061794117;0.012690388197143458;148.0;0.17301044121951448;0.10815048079857827;0.011734732254889064;140.0;0.17532081879436223;0.1077325770579142;0.011644236000204589;151.0;0.17825957735913814;0.100716334615741;0.010177091760495792;155.0;0.1654913745096065;0.08692439473222195;0.007575114429432402;155.0;0.17677643604132204;0.09698970737750359;0.009436831163543425;155.0;0.17746175590346341;0.10058727768663124;0.010149949085857196;162.0;0.17759276878509664;0.10726219929949143;0.011542097265955373;158.0;0.18255122405258442;0.11181026552876001;0.012540607414969285;168.0;0.1866699779437198;0.10070908942516461;0.010172843685811854;160.0;0.1812209961921908;0.08715634721152489;0.007616506034114342;144.0;0.17393501239304054;0.08385875463418369;0.007050049131538523;165.0;0.1742527970002733;0.08793982022244773;0.007745700993638385;146.0;0.16789938913407157;0.09247662431981461;0.008562331395617307;150.0;0.16782925800368842;0.09642993672758735;0.00931073687785505;157.0;0.16646279301519287;0.09853399325482891;0.009722121749632816;153.0;0.1644586817277751;0.09934462099142631;0.009881375007245148;157.0;0.16417881275146023;0.10214943234125987;0.010445006370044871;161.0;0.16587563529969226;0.09756936004300157;0.009533656898121414;157.0;0.16547301604594986;0.08419859932352775;0.007100110837147395;148.0;0.16705795232891824
0.15902914111119695;0.025372937417288438;152.0;0.2308238169652153;12.0;0.16887201773771343;0.028610654479566355;149.0;0.2347021424280478;0.17848761015271192;0.031960663385872806;156.0;0.23229858224724026;0.19833870598428432;0.039464656676190965;154.0;0.23395198013890617;0.20050101716071483;0.040330348246442035;156.0;0.2303360534033248;0.1759814981932324;0.03106845144214033;159.0;0.21732437514979755;0.15025897091734833;0.022647065093289218;159.0;0.20560712794387342;0.13926953799512082;0.019459252534147948;151.0;0.21499781696428322;0.12743546235240644;0.016292661871075795;150.0;0.19024974911825193;0.13114790425268302;0.017255744693998397;153.0;0.1906373848431561;0.1329300216241275;0.01772774497078181;151.0;0.19239115667507758;0.13096492644895302;0.0172078070404602;153.0;0.19447294393520134;0.12738290988116374;0.016278389341704527;145.0;0.19725272633366348;0.12986001008537373;0.016918265213094984;141.0;0.2018695467059786;0.13627295741499335;0.01863064819439129;150.0;0.20759852846802354;0.1215751188024483;0.014829006357675983;154.0;0.18866909596236026;0.12265200986460377;0.01509292727426622;154.0;0.20708758143278397;0.13115450252912422;0.01725585391058721;159.0;0.2072595002864054;0.131401829853451;0.01731522818061291;154.0;0.2067456084381307;0.13560698229090015;0.01843650263859925;148.0;0.20950105678272313;0.14218357242031343;0.02026947149138721;153.0;0.2136242858168086;0.13330481537661787;0.01781724488182253;149.0;0.20819569062045515;0.11892194161277467;0.014180636910970178;139.0;0.19998090480470543;0.12012896560023965;0.014477892591486387;158.0;0.20750151068841532;0.10725898801485277;0.011529992779197529;136.0;0.1868473840486923;0.1114850536715941;0.012456360144306716;136.0;0.1853731982519587;0.11394480682715996;0.01300884740098679;141.0;0.1838002461655252;0.11504908583848177;0.01325970495176606;134.0;0.18276582977834854;0.11365875823946373;0.012935891100963102;139.0;0.18278605769165562;0.11656199214943708;0.013608167370924771;140.0;0.1835550208696183;0.11392604734011871;0.013008893376438348;145.0;0.18373314041902955;0.1049955031878958;0.01104871060361607;138.0;0.1862531989352336
0.17650326821482337;0.031232665675645317;153.0;0.2560863859981696;12.0;0.18340279033836826;0.03371374127151967;150.0;0.25665825858533103;0.18163371732802736;0.033055402784052716;153.0;0.2510504506234829;0.18941714824755287;0.03594092930155385;144.0;0.24961849856837243;0.18802067856549615;0.0354193283846071;146.0;0.24468754405654325;0.1659554819329852;0.027590214979037037;145.0;0.23342944065560792;0.1438769313532028;0.020743835333574507;151.0;0.2227133177813284;0.1522240662449465;0.02323311377560656;146.0;0.24287242588814356;0.12874479358698712;0.016621758068511856;146.0;0.2152077710535101;0.13088052899747932;0.01718121196966181;145.0;0.217056148166015;0.13158867795769028;0.017369746442013653;148.0;0.2194192879231168;0.12886996612800122;0.016658118823002565;149.0;0.22131422665568445;0.12985932066595235;0.016914986405411093;144.0;0.2254350956540514;0.13612508066976967;0.01858771640908776;142.0;0.23109211548862962;0.14622953982211348;0.02144990575455811;147.0;0.23737606225307595;0.12935494128324387;0.01676558288682231;151.0;0.21362637412191865;0.12234851442002433;0.015007698369339578;150.0;0.22485848542626624;0.13311297912706657;0.01776693701488473;151.0;0.22616364630325847;0.13727280382823956;0.018894211571975014;142.0;0.22442100023404923;0.14293897368705927;0.0204849166132142;138.0;0.224763445102035;0.15056719801105667;0.02273010885728091;142.0;0.22516979740783646;0.13868052381336962;0.019281454269331356;141.0;0.2163587961554598;0.11829740888812966;0.014030629206649665;135.0;0.2045498337853954;0.1171604422086495;0.01376233958928366;152.0;0.2171120641538118;0.09988947133621966;0.00999902314625142;140.0;0.189790178287863;0.10249916042549656;0.010528603617137743;134.0;0.18834713150972138;0.10400967340487965;0.010839552025613968;137.0;0.1873792149297752;0.10386154093948835;0.010809613972751481;138.0;0.18873297434122102;0.10388846781466236;0.010818133837560109;142.0;0.1918375150066212;0.10676836275207174;0.011430333241009127;142.0;0.1940660334966902;0.10423308878990518;0.01089426419682725;141.0;0.19373973984124465;0.09923072353034201;0.009867945475824098;142.0;0.1896927950129183
0.20580385574291885;0.042487469299600296;161.0;0.27849780713925465;12.0;0.21901221246278657;0.04812014430782164;158.0;0.2795372147553563;0.22828142463625475;0.052281595176654955;152.0;0.27413721791897366;0.24415448826156289;0.05980475728630207;151.0;0.2743158820013862;0.24401732593848446;0.05973834909122718;160.0;0.2725601179438764;0.21531885554168761;0.04651169102613464;155.0;0.2612440992752186;0.18825083655439356;0.035554345101097715;157.0;0.25167116591413763;0.18290008303076474;0.03355632597199408;165.0;0.26408299717812145;0.15250264916831743;0.023333270972730285;170.0;0.23658665300550102;0.15191476225472497;0.023153802375558585;165.0;0.23625405561130644;0.15673624647980033;0.024646823464451833;166.0;0.23811354247628025;0.1620796956003901;0.026355629669792942;167.0;0.2406713471623124;0.1650020782627018;0.02731112612947243;173.0;0.24459571489281653;0.1654693844455359;0.02746458598231059;167.0;0.2502064680887293;0.17113516269847295;0.029372426134356696;166.0;0.2565178804425116;0.15806011886838728;0.025064365242551706;169.0;0.23725351175734424;0.12480224210781023;0.015626489910001776;146.0;0.23005883762531004;0.13313432156837926;0.017782476005489007;151.0;0.231751720519633;0.13532834455073442;0.01837278090919803;149.0;0.2299547191006396;0.14473054757250778;0.021015140044628074;147.0;0.23351793051798816;0.15337194182398553;0.02359986758520111;150.0;0.2353958942929871;0.13809763568218184;0.01913332034943196;149.0;0.2262811840477605;0.11394356614700442;0.013023535615603184;147.0;0.21248680980947296;0.11448031214494872;0.013148461017759239;153.0;0.21753691294340843;0.10068901306453026;0.010163897726110573;154.0;0.19763809631101958;0.10177719048304625;0.010383854616322229;147.0;0.1966922466680381;0.10319287164937423;0.010676545487453606;148.0;0.19603093641133743;0.10174255341610854;0.010376455568007176;157.0;0.1982608314616769;0.10237616832669369;0.010501484238949045;159.0;0.20304293442779336;0.10227667851296407;0.010481825826525343;158.0;0.20501542763116612;0.09970096495455111;0.009969366057913716;155.0;0.20494173191776607;0.10010751164232846;0.01004704494727057;156.0;0.19812267965738195
