rms_s1_ch1;var_s1_ch1;zcr_s1_ch1;wl_s1_ch1;rotule;rms_s1_ch2;var_s1_ch2;zcr_s1_ch2;wl_s1_ch2;rms_s1_ch3;var_s1_ch3;zcr_s1_ch3;wl_s1_ch3;rms_s1_ch4;var_s1_ch4;zcr_s1_ch4;wl_s1_ch4;rms_s1_ch5;var_s1_ch5;zcr_s1_ch5;wl_s1_ch5;rms_s1_ch6;var_s1_ch6;zcr_s1_ch6;wl_s1_ch6;rms_s1_ch7;var_s1_ch7;zcr_s1_ch7;wl_s1_ch7;rms_s1_ch8;var_s1_ch8;zcr_s1_ch8;wl_s1_ch8;rms_s1_ch9;var_s1_ch9;zcr_s1_ch9;wl_s1_ch9;rms_s1_ch10;var_s1_ch10;zcr_s1_ch10;wl_s1_ch10;rms_s1_ch11;var_s1_ch11;zcr_s1_ch11;wl_s1_ch11;rms_s1_ch12;var_s1_ch12;zcr_s1_ch12;wl_s1_ch12;rms_s1_ch13;var_s1_ch13;zcr_s1_ch13;wl_s1_ch13;rms_s1_ch14;var_s1_ch14;zcr_s1_ch14;wl_s1_ch14;rms_s1_ch15;var_s1_ch15;zcr_s1_ch15;wl_s1_ch15;rms_s1_ch16;var_s1_ch16;zcr_s1_ch16;wl_s1_ch16;rms_s2_ch1;var_s2_ch1;zcr_s2_ch1;wl_s2_ch1;rms_s2_ch2;var_s2_ch2;zcr_s2_ch2;wl_s2_ch2;rms_s2_ch3;var_s2_ch3;zcr_s2_ch3;wl_s2_ch3;rms_s2_ch4;var_s2_ch4;zcr_s2_ch4;wl_s2_ch4;rms_s2_ch5;var_s2_ch5;zcr_s2_ch5;wl_s2_ch5;rms_s2_ch6;var_s2_ch6;zcr_s2_ch6;wl_s2_ch6;rms_s2_ch7;var_s2_ch7;zcr_s2_ch7;wl_s2_ch7;rms_s2_ch8;var_s2_ch8;zcr_s2_ch8;wl_s2_ch8;rms_s2_ch9;var_s2_ch9;zcr_s2_ch9;wl_s2_ch9;rms_s2_ch10;var_s2_ch10;zcr_s2_ch10;wl_s2_ch10;rms_s2_ch11;var_s2_ch11;zcr_s2_ch11;wl_s2_ch11;rms_s2_ch12;var_s2_ch12;zcr_s2_ch12;wl_s2_ch12;rms_s2_ch13;var_s2_ch13;zcr_s2_ch13;wl_s2_ch13;rms_s2_ch14;var_s2_ch14;zcr_s2_ch14;wl_s2_ch14;rms_s2_ch15;var_s2_ch15;zcr_s2_ch15;wl_s2_ch15;rms_s2_ch16;var_s2_ch16;zcr_s2_ch16;wl_s2_ch16
0.1475755646556432;0.021849868695941722;149.0;0.17755268463610563;12.0;0.1398018266329184;0.01960857536080978;158.0;0.17702840946523116;0.13124534426216086;0.01728136605063198;156.0;0.17038673374338986;0.13242785171228658;0.01759425403794538;152.0;0.17285403920307815;0.1340894502461295;0.018036910617767257;150.0;0.17982219771284733;0.12125261010261405;0.014748671773856147;152.0;0.17054212774552344;0.11097886005528985;0.01235501433109269;152.0;0.16321253281065817;0.1327741390964298;0.017686734031534097;144.0;0.1675265303662635;0.10148456597743553;0.0103305901570706;158.0;0.15067229243896077;0.10240089236109261;0.010518658708811674;151.0;0.15106044280583153;0.10432250755670243;0.010918434800693863;150.0;0.15252468482607826;0.11005389648205648;0.01215063467296343;140.0;0.15637694455817872;0.11613047526144521;0.01352996199065218;145.0;0.16259787335044734;0.12701535301426284;0.01618570337903363;143.0;0.16834208535684642;0.12772010707419867;0.016365918174175577;151.0;0.1657144769994465;0.0998459747135443;0.009999759705476376;154.0;0.14881227324621893;0.09035562572929534;0.008173317781636658;148.0;0.14489253896780888;0.09591466085937626;0.009215194958520714;159.0;0.14784827865737393;0.10190946614202274;0.010406992122762006;150.0;0.14933654421970893;0.10145191716462869;0.01031390013566444;141.0;0.14551197086386516;0.09951161769703416;0.00992271443199608;149.0;0.14546062584708339;0.09214747415671881;0.008504198624358826;150.0;0.1446976450821005;0.08712923085920808;0.007601549153198847;154.0;0.14205197409089945;0.08895448970685911;0.007922087322911858;149.0;0.14530561451512333;0.07388361125604843;0.005454682332581856;138.0;0.13472385403273526;0.07891355744482906;0.0062178568608006815;143.0;0.13599983778982874;0.0811092890719702;0.006570155184090947;149.0;0.13629613650026712;0.0794226071345064;0.0063022129840730615;147.0;0.13558660993884783;0.08056402571494882;0.006488359781096258;149.0;0.13928253372152946;0.0831308192542825;0.006915529246990072;148.0;0.14535095128217732;0.08616690038545724;0.007430421703381446;146.0;0.14868322188474464;0.07349100105453277;0.0054016700842273845;144.0;0.13433161156642223
0.12971728934384294;0.016880654101578907;145.0;0.18253772669577126;12.0;0.1301226063259916;0.01698422642510813;143.0;0.1841629312597532;0.12667133468052677;0.016088700200329827;155.0;0.1820541694537794;0.12957040510128004;0.016824817364399877;162.0;0.18530429053731068;0.13265407678483981;0.017646980515777958;161.0;0.19105761204489624;0.12321331101632545;0.015220088178773837;161.0;0.18363849713666217;0.11379105567020698;0.01297291972454017;164.0;0.17839801483507386;0.1138703348797621;0.013003416749929546;135.0;0.17471170474610875;0.10343534241838397;0.01071531926763568;155.0;0.17039017823869676;0.10738131025942121;0.011552754264121069;156.0;0.1718092226214219;0.11128593704369845;0.01241408285370677;160.0;0.17375625211193746;0.11397273700843763;0.013027081864874989;152.0;0.17553455923482442;0.11376127039599851;0.01297820792953081;148.0;0.17665795528064915;0.11476207215045667;0.013206772744788048;145.0;0.18002561222185046;0.10917449862993032;0.011950877715441198;143.0;0.17305517331763853;0.10107298126440484;0.010228144978229983;155.0;0.16789668569265107;0.17693867633540455;0.031408492149901344;140.0;0.2235073029444503;0.18791279648900233;0.035423492955042254;150.0;0.23014217048675084;0.17757681582271512;0.031636395841112594;139.0;0.22437715920880255;0.1842459389403137;0.03405442798169599;136.0;0.2176764103445848;0.1987180516906019;0.03960452515782642;145.0;0.21454570801392042;0.1984467233184773;0.03949863165059089;149.0;0.21362482371795982;0.18600114835307588;0.03470030213408531;149.0;0.2093822083416844;0.16303221581641855;0.026666427334378157;146.0;0.22019357616765758;0.14963226266438473;0.0224609974838296;144.0;0.19873364959572454;0.15889613985462514;0.02532975892761769;143.0;0.19896724688935616;0.163596872309317;0.026849613301824348;139.0;0.19947943776781288;0.1611610761003572;0.026056613779021357;143.0;0.19978414215189996;0.16201831332727706;0.02633500554317356;149.0;0.20400517752458508;0.15936639522984708;0.02548067803036763;148.0;0.20811443177426456;0.1585804353008859;0.02522983620725523;144.0;0.2108216494099566;0.1434418887536041;0.02064045730995861;146.0;0.19829457998584982
0.22416069711413356;0.050399377815960156;157.0;0.25226771915143736;12.0;0.23447985096733567;0.05514847934403912;154.0;0.25342584532323736;0.22359609719408163;0.05014417964299513;163.0;0.24002997438945875;0.21983182190583167;0.04846324984029702;161.0;0.23315650801932408;0.22059492173010312;0.04879422907254293;158.0;0.23425274825699996;0.20772437494323978;0.04326308180682834;156.0;0.23044969662223003;0.19367941750484835;0.037608050436390976;164.0;0.2265786421456551;0.1954787840229815;0.0383320880209874;157.0;0.23370414037691853;0.17928489157359326;0.032230549027477545;150.0;0.22057356249964974;0.18439363415929996;0.03408923619849143;151.0;0.22400126841886728;0.19208556635575497;0.03700201014582779;158.0;0.22882813478951833;0.19651718014111155;0.038733346219204046;152.0;0.22703449940020218;0.18283298113264995;0.03352730449325962;147.0;0.22015849495757925;0.17243382479931188;0.029827961599487102;153.0;0.22429203576044057;0.17093341602968187;0.029311063895135926;157.0;0.22282980613676914;0.17731569087400403;0.031525655880136574;154.0;0.2164276153341735;0.2239098308387485;0.050250161966855736;153.0;0.2653959806102063;0.24835150802736924;0.061814000648704154;156.0;0.27921773594815985;0.22662667501214392;0.05145699735477157;154.0;0.2691198176132061;0.2168350016231836;0.04711112484927881;154.0;0.2532939489454551;0.22944552629374773;0.05275606712000868;151.0;0.2508349212613027;0.230749540734633;0.05335951409045997;156.0;0.2545701372106914;0.21674194676461359;0.047074463636853976;156.0;0.2506629377670678;0.1953703572824055;0.03826525261295563;157.0;0.2533335394452622;0.1871438716999228;0.035097642868048076;160.0;0.24030369290726927;0.19434207353827312;0.03785115204805728;159.0;0.2397803036660832;0.20189993023512467;0.04085341213631465;156.0;0.24179495543772905;0.20790123374198663;0.043346509621932795;166.0;0.24652724881396262;0.21234378061767561;0.04521818958519356;165.0;0.24824687871226322;0.1992560986515987;0.039805121478036554;166.0;0.24403497995618773;0.18993154807916668;0.03614763613605981;158.0;0.2407651129795765;0.17799308862363653;0.03175684419689734;154.0;0.23652424856438492
0.3244965799972153;0.10564089151439911;159.0;0.3071428831429317;12.0;0.3418842967550204;0.11726402309747844;160.0;0.30913426447029285;0.32783251429733223;0.10781832093512578;161.0;0.2905284165897739;0.33388617035866053;0.11184028540792923;154.0;0.28219205451688545;0.35222699172751143;0.12446165296760764;147.0;0.28818255773171536;0.32695435686923807;0.10723031074403191;148.0;0.2822671999884107;0.28835362331054754;0.08340411875342735;152.0;0.27106619684551786;0.2760180291672161;0.07642996954048015;165.0;0.280139488505365;0.25737823304756413;0.06644416527328537;167.0;0.26149537126131006;0.26951457117227773;0.07285647748838153;162.0;0.2657420584654246;0.2883199419315382;0.0833826931297588;167.0;0.27396278416162423;0.303788017649724;0.09258132745893495;165.0;0.27693406489662586;0.2886499669529779;0.08358422828674407;160.0;0.2719892342613623;0.2688361654166951;0.07250677528202484;160.0;0.2705303792316322;0.26345080315065467;0.06963244771987273;164.0;0.27031117384868836;0.2512102975402664;0.06328433802541177;167.0;0.25749535726095457;0.23421398489985812;0.05500217107781687;170.0;0.2682897152116601;0.2675229207231663;0.07177330884034522;174.0;0.28537984145717354;0.2585233119991745;0.06704236320675341;170.0;0.27670419028742566;0.24494607943967892;0.060194128964753;162.0;0.2628749174974008;0.258158847101586;0.06685980554127885;164.0;0.26826857082407296;0.2664656044689283;0.07123405639324694;163.0;0.2773673015167168;0.25299563394359603;0.0642136137241732;163.0;0.274124067991464;0.20916480306470125;0.0438803813803807;160.0;0.25582758687268464;0.20390619382153913;0.04171029715996458;163.0;0.25825946002779504;0.2030053346705608;0.041337417357466655;162.0;0.25704742571712674;0.20834790877033563;0.043539224370442796;168.0;0.2584945052149085;0.22286180532060193;0.04982006044533132;177.0;0.26445990317096874;0.23126328150998668;0.05363922778040365;171.0;0.2626474572890782;0.2125356790267635;0.04529081504752396;168.0;0.2564044247249488;0.19751778776354112;0.039119572042341774;161.0;0.25093645763311706;0.1990829212976442;0.039760108840509546;156.0;0.25498438127851414
0.30856073528925027;0.09535925820166241;155.0;0.3102712396783631;12.0;0.3282371316232513;0.10795011233398175;152.0;0.3118694039874147;0.3203742014971739;0.1028358067408227;153.0;0.3021214001841524;0.33092408493970915;0.10978385794181127;151.0;0.2993896529192982;0.3551281344272596;0.12644704182818475;146.0;0.31032171132401254;0.3274109096551504;0.1074502153326162;154.0;0.29912946720842354;0.2842681152022864;0.08097628605838351;153.0;0.2834233244330037;0.25706089543118305;0.06617206222680996;162.0;0.28185336742300426;0.24697527830655192;0.06113791016490902;169.0;0.27207541762978815;0.25974691552283763;0.06761046332183307;164.0;0.27512039817527695;0.278475926448557;0.07772029087162724;164.0;0.2815584487080771;0.29589918758827827;0.0877860086246055;164.0;0.2868895197577553;0.2865780714369825;0.08231829412725944;161.0;0.28650759233216194;0.2620096181798354;0.06882318730305964;162.0;0.2818756170288415;0.25308811734486397;0.06420470607030836;164.0;0.27686596458061663;0.23767518540477459;0.05660795112151452;164.0;0.26786237598402307;0.2521486926189336;0.06377220208022606;175.0;0.2851352637187057;0.2824914281003869;0.08001089237864062;172.0;0.29732810339631843;0.28379438017418745;0.0807386177528445;166.0;0.2894089700477369;0.27706211166703926;0.07693908802303302;164.0;0.28036362679895727;0.29398998856552344;0.08664293870839085;168.0;0.28689809223848306;0.30552756102900175;0.09358248003555797;170.0;0.2944855744660375;0.29186415601344085;0.08538930903805585;170.0;0.2906518522731917;0.23576834302725494;0.05575654529172505;167.0;0.2767861081474162;0.2344887676294749;0.05514962749163453;167.0;0.2737916823357542;0.23451647723030378;0.05516705237444043;166.0;0.27490479145859975;0.2379483666811269;0.05679640449640189;170.0;0.2758024372762153;0.24388854780931193;0.05966904491554671;166.0;0.27825556977120386;0.2465611952469375;0.060980473545302005;166.0;0.2763420858709146;0.2349324422556347;0.05536244429606408;161.0;0.2740581529187957;0.22203993418261755;0.049446233306758396;163.0;0.2713290910042002;0.22912218883701854;0.05266176366407851;167.0;0.27147105969105256
0.2539146579574435;0.06463604332181437;164.0;0.2967275329754177;12.0;0.2643452153548081;0.07007352601675612;153.0;0.29782448265660605;0.26307635661622103;0.06941659338845552;150.0;0.2926662280632058;0.2700216511482219;0.07313605025059015;158.0;0.28992291257679503;0.2793594147502045;0.07829581334729076;152.0;0.2984985752140113;0.25746215524746263;0.06649920839635405;157.0;0.2869752777426976;0.22977101574666128;0.05296148050348075;156.0;0.2729256404589895;0.21434550379608025;0.04606019299286894;165.0;0.2743759240474611;0.2093459345213084;0.043956824280501496;160.0;0.266752145890336;0.21032024906648553;0.044368014634547016;159.0;0.2685947933530812;0.2162663855746017;0.046912405703622;160.0;0.27254290954212146;0.22287999107729087;0.049827002959910424;160.0;0.2741156728925029;0.21932597156416242;0.04824307867334589;164.0;0.27228598233967977;0.20733655926770844;0.04311745373374684;163.0;0.2720283238598317;0.20189965374064422;0.040886583602452946;163.0;0.2673562082499859;0.1986759927490084;0.03959391711350353;153.0;0.2595246202728973;0.24823533654998167;0.061810692756798014;161.0;0.292981395060766;0.2723682981005129;0.07441080633369253;162.0;0.3044578129133883;0.2737658155185859;0.0751889577734347;162.0;0.3031637613358931;0.27313509865956836;0.07484337519416541;163.0;0.29059023878519225;0.30083061198616395;0.09079288879081793;167.0;0.297640122571584;0.3160672545406388;0.10021964305868263;165.0;0.3053985046097955;0.29777843769943535;0.08895373833445137;164.0;0.29828468731533403;0.22990423568069215;0.053009761051560175;162.0;0.2822288787395217;0.22878990907836616;0.052489319664065864;161.0;0.27230837353174897;0.23281483295399136;0.05434101997477972;158.0;0.2762393026818004;0.2390486404220027;0.05729909021277078;158.0;0.2798523195652536;0.24069386389657316;0.05809196363071297;155.0;0.28259135633416593;0.23768114728078013;0.05665329677703288;157.0;0.2819904967592704;0.23180321757483677;0.05389000064623053;155.0;0.280836211599161;0.22223288045747752;0.049532738727027334;157.0;0.27684837097474285;0.22278136729194467;0.049779385408053385;162.0;0.2700888976506466
0.2458824912948958;0.0605084132147189;153.0;0.27992342960569405;12.0;0.25218026091776097;0.0635986755815026;149.0;0.28435936396057643;0.25435080031978363;0.0647119639576302;148.0;0.2838378074088673;0.26242695867573956;0.06898991668701206;154.0;0.28263597161180865;0.27127632080088876;0.07374113154028936;148.0;0.29356491794020056;0.25184067373126634;0.06356530785225274;146.0;0.28586421728307615;0.22160994420048405;0.04918900954550688;154.0;0.2708135146906165;0.21167592131617494;0.0448608539662938;157.0;0.2694270719921352;0.19499670350606968;0.03811771992900109;165.0;0.25903215123706064;0.19549724902373503;0.038312503537843184;165.0;0.262546723257056;0.1986294448966759;0.03953790180819177;163.0;0.2680999151462896;0.20297812823583555;0.041273754522777394;158.0;0.2730405444286841;0.19980596316204355;0.04001139683382224;166.0;0.27024164749095886;0.20063401326174926;0.04036790724115706;164.0;0.27207299967589954;0.1966338430641681;0.03876719730875746;160.0;0.26727380215009305;0.1884826488539302;0.03561837918907734;162.0;0.25360906926480237;0.22326246372325304;0.050009405327209926;150.0;0.2828766282634232;0.24188803585801205;0.058698776278227435;155.0;0.2913298704376597;0.2450807587516682;0.06023558978850929;161.0;0.29276290293812157;0.24855786175433348;0.061948150465438875;159.0;0.2828410660645452;0.27444270388425407;0.07553121470695955;159.0;0.28782553163093794;0.289732923731046;0.08418972866872272;157.0;0.29565245961691816;0.26942261187487265;0.072802773968941;153.0;0.2867896872186116;0.20163059290952912;0.040788455018312055;155.0;0.2708549177576864;0.1855773599641679;0.03455240328442203;160.0;0.2557148167123133;0.18907273091905866;0.0358659335159083;159.0;0.25765706400389476;0.1949316215096151;0.03811695803529;156.0;0.26093501516567297;0.20045380238955493;0.04030160957005535;159.0;0.26598016052362705;0.20249124030449012;0.04111887361790691;161.0;0.26760940369297026;0.2042148093781708;0.04181622698193843;155.0;0.2726096998155543;0.20038558384493424;0.04027734044958664;151.0;0.2709262455668848;0.18131031852575663;0.03298162580210757;164.0;0.2529119735915588
0.25202309584472526;0.06372212860728925;154.0;0.2784184638370314;12.0;0.2625948609814562;0.0691668353827635;146.0;0.2845352962010321;0.25948802779420577;0.06753611466837268;148.0;0.2828482323514715;0.2611012262858963;0.06837895761217105;145.0;0.279250488278967;0.2782131476003803;0.07764561564247009;148.0;0.2935994089487101;0.2650016440602378;0.07043909374885078;152.0;0.29071632344556014;0.23187167215281848;0.05392416333681272;157.0;0.27504653032328935;0.21747442466076952;0.04744555855755172;160.0;0.2714388451554452;0.19028882897440852;0.036306109251288875;169.0;0.2575655414994243;0.19514612792765546;0.03819016389778886;167.0;0.2604967333110188;0.1995659232702123;0.0399387054124003;161.0;0.26449293757621567;0.20361021040083677;0.0415775259732192;160.0;0.26741056934324764;0.19943485326758717;0.039891770732145046;163.0;0.26307203803444074;0.1968677683694762;0.03887985782685557;167.0;0.2645176050127861;0.19582200208194347;0.03846869217008164;165.0;0.2626835404556721;0.1844667377057072;0.034130874388706205;169.0;0.2531661331438142;0.22088767823791408;0.04894408696408919;156.0;0.2863286827440536;0.24536458295375693;0.060390129667785494;158.0;0.2972617824270365;0.24365259117441343;0.05954990144394004;156.0;0.29606830906852744;0.23541218390134439;0.055581596212312935;162.0;0.28197684905289616;0.2502915394054217;0.06281655186472042;156.0;0.2833601005892214;0.2658921275627558;0.07087287000056902;159.0;0.2914370736828669;0.25097028755262685;0.06313916930648988;156.0;0.28485743991994456;0.20090659389713947;0.04048618579758977;154.0;0.27797597868140633;0.18673114512030395;0.03493952848082141;164.0;0.2637225517023141;0.19114088704082852;0.036597209553746464;165.0;0.26456580586042633;0.19499372039310323;0.03809904927412658;166.0;0.26436889101512834;0.19981029594333552;0.04001236212807861;168.0;0.26856579751445514;0.20791295422966283;0.043320493487176384;166.0;0.2734060385878331;0.21020868039297483;0.04429064138946165;156.0;0.2812970957055142;0.20107817535876008;0.04054501337333025;146.0;0.2790177338644228;0.18154925996273857;0.03302726959207395;165.0;0.258899084522515
0.24237586476171788;0.058928508329727854;159.0;0.27832190862698936;12.0;0.25263785547972606;0.06400788117255576;147.0;0.28705175872306254;0.2436497976507785;0.05950365282207494;150.0;0.2828078404864164;0.241010259533177;0.05820262745301851;150.0;0.27905970631726296;0.263672974635254;0.069640649159094;154.0;0.2917700354063477;0.2542447756272051;0.064750458169061;160.0;0.2886719566168834;0.21857238815096325;0.04785318372318437;160.0;0.2710329187694575;0.2031139773848908;0.04137612837454932;162.0;0.2666032137164994;0.17189124543890627;0.029634891620214487;162.0;0.25070089387407296;0.1739743874299486;0.03035635075996507;167.0;0.25363436506493636;0.1773665996256584;0.03155278938014287;170.0;0.2587501355744097;0.1800121761268292;0.03249610137538817;174.0;0.2618081271125664;0.17997562868221614;0.03249145857955714;169.0;0.25993540058355874;0.1783340582861085;0.03190361046229032;165.0;0.26131102269932804;0.17791267447846879;0.031756384767495136;163.0;0.25759860496575293;0.16400827156868003;0.02697009068994929;164.0;0.24610343946750957;0.20978287277036659;0.0441525168355382;161.0;0.2736695109310318;0.23791790655572692;0.056789023138172884;162.0;0.28938889055020783;0.2340863322738119;0.054956958370662556;154.0;0.2905517466572754;0.22709682146398433;0.05170426023759776;159.0;0.2742111337592868;0.24762181775754147;0.061488057102803154;150.0;0.27526273488188796;0.2668523898155327;0.07143003871732233;151.0;0.2858193043647853;0.25257787877778504;0.06399399633746042;151.0;0.2791171297954672;0.19393054053125092;0.03773179211323337;158.0;0.26702009933834936;0.18842953813033939;0.03562093650153972;155.0;0.25970826517116846;0.18998187311502368;0.03621059066723351;159.0;0.2598864562169159;0.191372047518886;0.03674306082389909;161.0;0.25832909539988225;0.19255696260807914;0.03719805521008651;162.0;0.2587864010937124;0.19622604568582322;0.03862955537680542;153.0;0.25832270604735846;0.1934152203565248;0.037531274042628855;149.0;0.26345181384736915;0.1829255522050697;0.03357118006922313;148.0;0.2627835899423761;0.18527378779045608;0.034437964664417;153.0;0.25698046852217266
0.16712845561063996;0.028015482075193023;159.0;0.20575672302270595;12.0;0.17329937823045394;0.030129354962586837;148.0;0.2144143482735549;0.16621526525818542;0.027715105222798023;144.0;0.21212916122331796;0.16199879839567802;0.02632217959595324;146.0;0.21071087393761737;0.17791581192093595;0.03174983570500834;152.0;0.2189373400491181;0.1706217345236212;0.029200137544665376;153.0;0.21368684524990159;0.1441952930213439;0.020855703866711553;147.0;0.19903514582708132;0.13597951345420722;0.018550262030505728;153.0;0.19137372203120262;0.10335904925545066;0.010715166826516765;152.0;0.17986217542060084;0.10239318126088005;0.010516853219303823;159.0;0.1832458982514898;0.104449283081044;0.010944243901496899;168.0;0.18936075578693062;0.11017590229962902;0.012178096377492145;169.0;0.19597191534214808;0.11392697372435359;0.01302134666831593;165.0;0.19718577128602754;0.11491640669320435;0.013248620536552588;164.0;0.19736107756586554;0.1125608241413163;0.012710137401577844;161.0;0.19090025906110022;0.09988795288619935;0.010007415500881035;152.0;0.1781217576113233;0.14400715261145414;0.020805831289667173;168.0;0.18591211562937904;0.16234464977008023;0.026441434184372246;166.0;0.19611850999930425;0.16060731439794204;0.025874016185653978;160.0;0.1986810903379837;0.15682906305921995;0.024666666253781503;180.0;0.18939662986881617;0.16622197546737413;0.027707853404566836;174.0;0.18692673951679756;0.1767730998704972;0.031341695804170434;172.0;0.19431569448020256;0.16647573567073518;0.02779497346503565;173.0;0.18926605182803907;0.1326651560328047;0.017656340523416587;171.0;0.18021018913069592;0.12208273595362075;0.014942398341754823;165.0;0.17758584870974867;0.11958709406667013;0.014338356853696008;163.0;0.17675213527434414;0.11768221022897123;0.013885967672675961;162.0;0.17603428539955013;0.1153186815930371;0.013326948611058103;171.0;0.17497400299101998;0.1144855272510009;0.013126503862149001;171.0;0.16941748375060453;0.11611266356064488;0.013516405193302527;166.0;0.17179202396029009;0.11638551650947597;0.013588686930001892;167.0;0.17472438092642117;0.12121609607689261;0.014735564559867548;165.0;0.17619484450871598
0.09658686255381761;0.009358748832820446;154.0;0.15195028416478965;12.0;0.08624220950861546;0.007455412490358694;142.0;0.14562901934816985;0.07493479852578529;0.005621223319905934;149.0;0.13239929264276107;0.08186305449931397;0.006701459886463501;141.0;0.12910380469637084;0.08661253604039447;0.007494140905634212;150.0;0.13423363138683642;0.07679566035389689;0.005876146721247426;155.0;0.1289309106748392;0.06931925075591909;0.004791319931704337;140.0;0.1228517080356894;0.07206785032200308;0.005209989758324246;155.0;0.13255071694027187;0.06223168110859952;0.0038821939655999315;137.0;0.1213507389472358;0.064818161510998;0.004213884610031539;142.0;0.12276068550250162;0.06689730442082506;0.004489939977131535;149.0;0.12350014048908951;0.06946065936749066;0.004840656411792422;153.0;0.12617129723446605;0.06976464738790578;0.004882985812570246;152.0;0.13029631255368762;0.06720140434204258;0.004530747402657545;158.0;0.13378710228503327;0.06253595749824012;0.00392360199697704;155.0;0.13126963487669607;0.06252755595158634;0.003914603004174864;137.0;0.1207282652310665;0.042033949513206804;0.0017690305632508435;153.0;0.07755060720965194;0.04396109767319032;0.0019350251339240673;153.0;0.08103226055000402;0.038279463757564185;0.0014694818182227492;145.0;0.08217246382090357;0.03571634435952522;0.0012798590068012503;160.0;0.07779699032871745;0.03645596675516591;0.0013333636249357873;156.0;0.07692931679816285;0.04033427465091455;0.0016316849977187858;153.0;0.07840369250094661;0.039723707042571256;0.001582161911525965;153.0;0.07932623253993346;0.03932015883559715;0.0015459931105147727;154.0;0.07607312237090004;0.03042723994223993;0.000928156992059515;150.0;0.07203936449465628;0.02923118190885526;0.0008567122433976357;146.0;0.06908871664806916;0.02834945641161985;0.0008060145412585295;145.0;0.06842990442297817;0.028655852189193705;0.0008233054917865782;155.0;0.06940612745489498;0.03222612795906644;0.0010396690835662733;161.0;0.0706348076840198;0.037625180543052694;0.0014136588619636558;157.0;0.07083569414469659;0.041071046654038865;0.0016826281615769292;152.0;0.0712414381027892;0.030187282212367522;0.000913356016682005;143.0;0.07016961932342455
0.14136838105979962;0.02004688960572227;152.0;0.21547760586758102;12.0;0.14298606629222677;0.020509127184677775;145.0;0.21188606401458562;0.14245538319406195;0.02035912008947894;155.0;0.2014330306590703;0.15791676378750008;0.025018148212064852;150.0;0.20152848556312647;0.17252301328977668;0.029861653890378603;147.0;0.20980287145258206;0.1602592761357976;0.025767369846012373;155.0;0.2022131316324949;0.1399730970916454;0.01965684704827718;147.0;0.19030107647467817;0.12124500464154585;0.014747225998715472;157.0;0.19608331632852305;0.12168965395638369;0.014857042841007966;130.0;0.18532545406425338;0.12487905751131681;0.015644619714852998;139.0;0.1873992604328294;0.1260355272153542;0.015935635237248676;144.0;0.19038955473349467;0.12445737305847948;0.01553797360389144;151.0;0.19225093247149494;0.1204603126674101;0.014556428040308737;142.0;0.19452586316780984;0.1203759319746256;0.0145377256446952;142.0;0.19796895052816618;0.11217111829082338;0.012623423063509071;140.0;0.1923796699587058;0.12600027197330257;0.015928330564671966;132.0;0.18563676584246067;0.04623875637100016;0.0021330461499482465;141.0;0.104610405009053;0.05150232886287102;0.002649658778866515;141.0;0.11092638977075445;0.055454892490303234;0.0030760007897263266;131.0;0.11350341345144509;0.057212841727240574;0.0032747060890825136;118.0;0.11010274535411611;0.05862955918947602;0.0034396069273529926;117.0;0.11059013827414184;0.05791882378950992;0.003356340800738207;123.0;0.11264152537822375;0.058203886030305796;0.0033926095304429634;126.0;0.1129373852336327;0.04638401214794845;0.0021461166207631293;137.0;0.10582845227460272;0.047552473038112934;0.002264384080607231;128.0;0.10178849764309145;0.04890112636756455;0.002393931764135872;134.0;0.10144221160952839;0.05082017020662006;0.0025864123686692637;132.0;0.10241745994614505;0.0511922071939915;0.002623053839881132;133.0;0.1025778041604162;0.05032190480084855;0.0025331903027951226;135.0;0.10382573908596436;0.046130682118897696;0.0021268594280787114;132.0;0.1044239613069575;0.04365740234102042;0.001902568764005011;133.0;0.10301601182219554;0.046435548017780506;0.0021585247447622503;125.0;0.10129970018440905
0.2072515620816191;0.04308303306269024;163.0;0.25733105772428766;12.0;0.2280825894062591;0.05217101603517731;151.0;0.26702860418316177;0.2283157072481546;0.052269750668262255;141.0;0.2619394468160083;0.2363818445741983;0.056035557117244304;141.0;0.2592874181140025;0.25737164119728806;0.06643866941746389;136.0;0.2678163110062968;0.24240336517350378;0.05893628293520885;142.0;0.2598944609816773;0.2044709745661106;0.04193776819451427;143.0;0.24377225335850616;0.17252406583608962;0.02985374061559023;155.0;0.238462907431488;0.1610006242863323;0.025998320153221798;135.0;0.22590638683576653;0.166345111207138;0.0277557961840604;147.0;0.22931636836292715;0.16989808154253028;0.028948098662631757;149.0;0.23454466638040378;0.16760067829426936;0.02816676267643893;154.0;0.23537367600450945;0.15785622160312074;0.024976790162049636;142.0;0.2325260107550711;0.15972825029815277;0.025549803880810008;138.0;0.23342202690871178;0.15594555614325115;0.024370685294196774;143.0;0.22910120388696992;0.16280770928892688;0.026586604522349486;131.0;0.2238745216599828;0.09293841728855315;0.008664445751986974;166.0;0.15819319612452035;0.10013867906828405;0.010058108575941142;161.0;0.16271066004527743;0.10113490889571314;0.010259282104161929;155.0;0.16338670658470922;0.10327576535660524;0.010695944106288918;148.0;0.16165729453177646;0.11002066201479908;0.012138961012403011;153.0;0.16346885557525254;0.1116036567205893;0.012491376424830126;153.0;0.16733810986174003;0.10774576467596976;0.011644666553131731;154.0;0.16595231713802824;0.0934107358303931;0.008752602009868831;163.0;0.15915231407262526;0.08156385109776343;0.00667319400305522;157.0;0.15068228997289432;0.08111995191701285;0.006599835881702907;162.0;0.15033202321328934;0.081490394045383;0.006660238620209499;159.0;0.15079876974819756;0.08217610919107637;0.006773281696439571;163.0;0.15214111267773622;0.08352403320332265;0.006994473269097711;165.0;0.15347206991241366;0.08141332481113754;0.006647807863840601;154.0;0.15418399435886382;0.08131457846615311;0.0066328864135229955;155.0;0.15412104524445686;0.08213571592872498;0.006766465022208949;154.0;0.15086168873107256
0.2818049642695696;0.07967180922813606;169.0;0.2900719276408275;12.0;0.3017378032533276;0.09134223927516147;152.0;0.2996427141651228;0.2779810150539469;0.07752357307416166;141.0;0.2864676900260055;0.2583987908063899;0.06698783884101751;143.0;0.2730068535223515;0.27060937752901665;0.07346462165718762;142.0;0.28146906754506323;0.2563602839516584;0.06593415100776938;145.0;0.2743181323141746;0.22138033680117006;0.049167458436876615;147.0;0.25762618868483134;0.23008966223365127;0.053106138207397555;156.0;0.26987746429635057;0.17369607535701295;0.030268707083682195;155.0;0.23764089033196836;0.17894645130497597;0.032126457207983114;158.0;0.24114693615029045;0.18625203447424601;0.034802325386739684;153.0;0.24820558969766393;0.1907398862124502;0.036499183209427695;152.0;0.2526053290518395;0.18853924294232494;0.03566188132694833;143.0;0.25050251347913916;0.19413956712110658;0.03780542535186005;147.0;0.2525110395070187;0.201301806513573;0.04064289568699799;150.0;0.25497737237187995;0.17133980059640624;0.029452408478665426;145.0;0.2350996893823661;0.12844856822173545;0.016540514061305904;175.0;0.20916294297516194;0.1404088288472724;0.019764909540127683;170.0;0.21281751681995642;0.140037673498317;0.019654806432028306;168.0;0.20705826025165666;0.14291950549304056;0.020464895102864287;167.0;0.20262878460780312;0.15583467531232031;0.02434071326304773;162.0;0.20798220283053948;0.16411267737978638;0.027009935230072477;155.0;0.21705573180349383;0.15839558740305493;0.025166565812721073;151.0;0.21568697346372;0.12697898182259812;0.01616607030671653;179.0;0.2061607505053964;0.12524881212942204;0.01573123026696761;165.0;0.19862299726663574;0.12380438459114916;0.015371199176909864;168.0;0.19782555201143015;0.12619591210378256;0.015970307293763104;164.0;0.2000549415024183;0.13185820148475524;0.01743094049071755;166.0;0.205214139271793;0.13558976393849484;0.018422379811084483;171.0;0.2080469900086774;0.13356829552120753;0.017868399263171263;163.0;0.21042698254926284;0.12388814163315683;0.015379707487721004;162.0;0.20817156427620193;0.12324407116498898;0.015234827122865995;164.0;0.1979410996333334
0.2858914637362639;0.08200227701186484;164.0;0.30548455182827955;12.0;0.3002814942499621;0.09046504469309535;151.0;0.30841928124635304;0.2777814688323082;0.07741443301293026;150.0;0.29502933659676694;0.25526388542697426;0.06537333516307961;163.0;0.28573728079483407;0.26480351274719555;0.07034204636629346;156.0;0.29700275899335515;0.25400232488524543;0.06472903882819035;152.0;0.29221126626991145;0.2257369876531459;0.05112482310897128;163.0;0.2750441519502831;0.24067114721166577;0.058112758936586496;156.0;0.289001264963819;0.19255417982342973;0.037198009212162333;168.0;0.2599964188107269;0.19417907667498535;0.03782936855612567;166.0;0.2608707467512612;0.19746293043375318;0.0391184283159105;155.0;0.26592401079874695;0.19956751305904613;0.03995785049231701;153.0;0.2711604055866479;0.19876075997159104;0.039635774251289245;148.0;0.27189287968957426;0.1991385562955963;0.039783531866870676;154.0;0.2722099307012142;0.21110933364494147;0.044713009739267055;152.0;0.27724565276805313;0.1903326330657445;0.03634494634032937;166.0;0.2577379565756454;0.15910780060749533;0.025388647121102496;155.0;0.24786988583590377;0.1721752838748073;0.029732473319331782;159.0;0.2521463562190532;0.17376237000053044;0.030288565584360536;154.0;0.24492776024770407;0.17316636435551522;0.03008466389562119;147.0;0.23819581571152576;0.1817583378744752;0.0331415259512891;142.0;0.24394474827807716;0.19230401202914524;0.03709997531235378;141.0;0.2550215517931797;0.18537213352213933;0.034474845481953814;144.0;0.25181326227590617;0.15519925499253628;0.024163017885114844;156.0;0.24200101645747193;0.15228781379070477;0.02326782495514335;146.0;0.2308782431752206;0.15048589894409017;0.02272044045011312;146.0;0.2297445447105041;0.15197631425826083;0.023172056412664822;147.0;0.2306748832456759;0.15717738900185288;0.024784824937486707;149.0;0.2349600749687787;0.162135684590987;0.026370510284004122;145.0;0.24003266264618447;0.1655943069112722;0.027511486386737366;142.0;0.24831412449889748;0.15643818740154808;0.024546697211595032;146.0;0.24740053801835626;0.149477557362065;0.02241700021620109;149.0;0.2296880927684386
0.2708802744055905;0.07355970743596044;158.0;0.31084342874408355;12.0;0.27780645482471156;0.07732473506150302;151.0;0.3108198228766841;0.267836594039486;0.07185114261589122;150.0;0.29853914534291265;0.2672649664957872;0.07151365108629364;158.0;0.29255427555219776;0.28338606594608035;0.08039903187736623;161.0;0.3012976869733459;0.273789840265789;0.07504078928200378;155.0;0.29748990028753547;0.24624170839959045;0.06074886925564485;169.0;0.2828434121691337;0.23213806879066406;0.05401500338352685;156.0;0.28822857109001937;0.21812702574728762;0.04771245358647759;158.0;0.26927285494158937;0.22367229326503366;0.0501685328292484;159.0;0.2714474879085769;0.2246289865519944;0.050594924860519704;151.0;0.27417412683603315;0.21994675726805635;0.04851649432058404;147.0;0.27628414710554183;0.21296483272928504;0.04546943333459654;152.0;0.2770597001442538;0.21196102347367862;0.04502866706279747;162.0;0.2762685253229986;0.21925879336678222;0.04817952916178958;160.0;0.2822744151364005;0.2178470673092205;0.04758774572178439;162.0;0.2666970008691777;0.21099167695304655;0.04464880985516886;146.0;0.2680687034098849;0.24076394162707676;0.058140940951175835;150.0;0.27618367426996704;0.24912786774056644;0.06224718793445495;155.0;0.2748501769546153;0.23511886592767886;0.05543361084896591;150.0;0.26752144117039656;0.22429466823873723;0.05043298752044565;148.0;0.26520812212030864;0.2200844506113648;0.048559591268028446;147.0;0.26789902269274585;0.20770605853952634;0.04325940332388426;152.0;0.26168255986170613;0.20159455540535035;0.04075963550609183;146.0;0.26353635397225506;0.17311822139693667;0.03004286939555041;148.0;0.24047252676499722;0.17447714906030762;0.03051784286678999;143.0;0.24202888939104755;0.1783463583911696;0.031888139158179375;143.0;0.24419623515792066;0.1853244404591384;0.03443280825564168;142.0;0.24853218143565076;0.18962515023845355;0.03603998714568005;137.0;0.2516268540323699;0.18910404131425065;0.035823789610430194;137.0;0.25917701374280266;0.18482075808042972;0.034234523043395894;147.0;0.25996940020473863;0.17137530530078193;0.02944665912760116;152.0;0.23972878539245707
0.27204784892317013;0.07425100362115727;159.0;0.31601355183834884;12.0;0.2822342519419149;0.07991709726633338;159.0;0.3162825991707484;0.277542567439437;0.07727980399231979;147.0;0.30443143577671034;0.27919479408278886;0.07820320349329188;151.0;0.2941532992353289;0.2944203600729603;0.0869623910762029;160.0;0.30028255692008154;0.28314427420928284;0.08042588856813272;156.0;0.29598879569131487;0.25587430121736016;0.06568307796616434;160.0;0.2842278473369998;0.2326271720590829;0.05429176559106478;152.0;0.2925434332857659;0.22689539622716423;0.051645233641684295;157.0;0.27493955050964014;0.2337914817078248;0.05483285258005084;158.0;0.27690070422691143;0.23739123647637358;0.056536633496443195;153.0;0.27941503273790447;0.23592036127393082;0.0558394553489522;150.0;0.28147848197248926;0.22988814703950197;0.053019932922147996;154.0;0.28164103135549;0.22787140567293981;0.05209505990273936;158.0;0.2833386646495501;0.22808870470309345;0.052194185829788055;158.0;0.28739979758581397;0.22397884015500702;0.0503286949154203;161.0;0.2715276844995677;0.211531856947722;0.04488143618334275;164.0;0.2649221016360798;0.24333375407093946;0.059390459938366176;155.0;0.27450219035849494;0.25351415292198903;0.06445265893610384;166.0;0.27455660801196385;0.24392415804727097;0.0596627190586403;167.0;0.2674962600591522;0.24361855477945205;0.05952694003381838;171.0;0.2640349932733589;0.2466059473525865;0.06100012758059702;175.0;0.26584004308930637;0.23013741319665054;0.05311491577319496;175.0;0.25833361458801096;0.20009127881951216;0.040167107245384394;168.0;0.2610439096431985;0.18158314377092843;0.03307923866845817;171.0;0.24548878005321545;0.18551647666710394;0.034525798523359005;165.0;0.24770724174322706;0.19056526665225806;0.03642945566346337;158.0;0.25074229110446317;0.1954712404251336;0.038327698638142116;154.0;0.25518593372383686;0.1980597486215775;0.03935049720113575;148.0;0.25303809675442485;0.19479673600540384;0.03806794194483273;160.0;0.2557695600744714;0.18645588923807346;0.03487490156535626;165.0;0.25469724259029153;0.17694948147845313;0.03141425326839642;175.0;0.24300815186270994
0.25617747274262037;0.06581321301696766;161.0;0.30919746588888564;12.0;0.2758958995798762;0.0763133333563057;168.0;0.31405019338056295;0.2855215768467353;0.08173859039528973;158.0;0.3107509324669709;0.29791884430631244;0.08898501008568208;161.0;0.30476948490981315;0.32856287603064444;0.10824636794211528;163.0;0.3134022775230308;0.3187073813300463;0.10186350783577641;156.0;0.3089817744983725;0.28016727099824734;0.0787248026917879;152.0;0.2945448540287759;0.2146246818333461;0.04619655312292677;149.0;0.2896873752899593;0.21295143025495716;0.04548270485157117;163.0;0.2756267294694701;0.21267771477274588;0.04536354697787358;162.0;0.27460779503551414;0.21612805414595226;0.04684790671204363;160.0;0.2755687381511668;0.21737182232412558;0.047387330185433986;158.0;0.2776973869116088;0.21353900853261185;0.04572849375461621;162.0;0.2809848832475716;0.20992377921538288;0.044190484539889364;153.0;0.28645727130974136;0.2081164610333634;0.04342701041812372;157.0;0.28416941402992557;0.2068254662873959;0.042898948226881124;164.0;0.27049354690687527;0.1719245282470203;0.029653275854914275;162.0;0.25036151059697886;0.1922238983281781;0.0370672354702316;152.0;0.2605074098106338;0.20705011859747752;0.042998972068666985;159.0;0.26360845108606346;0.21673681583790103;0.04711518795302525;165.0;0.25789874058346335;0.24356680958401697;0.05950416148140792;166.0;0.26238919742657224;0.26413958255067926;0.06998639687761792;169.0;0.2706738060497702;0.24696646636042946;0.0611885631699658;173.0;0.2619843903043762;0.16044495890920832;0.025825163395792765;170.0;0.2452123410512423;0.1688983582243656;0.028618428740219665;172.0;0.23640270190975549;0.16858705730564785;0.028512383761237388;166.0;0.23534184050524912;0.16816854591411082;0.02836974284249856;160.0;0.23549342893163386;0.16816431638359075;0.02837000883954744;159.0;0.2376707836818346;0.17026999631222725;0.029085976473867407;151.0;0.2367175166558564;0.17170016097365995;0.02957812212629677;163.0;0.24148793367128152;0.1636955363527564;0.02688405764812041;159.0;0.242013740553552;0.16577252345127327;0.027567379749105364;174.0;0.23444878241906447
0.25817814400497435;0.06687357077164612;166.0;0.2957815267155077;12.0;0.2681538521536145;0.07214146111907016;164.0;0.29793897753163867;0.27092266415095223;0.07363808785479956;153.0;0.2924635065262197;0.28441145676102075;0.08113972195623952;154.0;0.2890624512948801;0.3128676778815712;0.09818758673538963;156.0;0.2991013096813355;0.30516064936732945;0.09341761734093955;149.0;0.29519863456676865;0.2704150403665728;0.07335283315067595;144.0;0.2799492822192644;0.2131253384754265;0.04557054852368167;158.0;0.27551948697289025;0.19294847227384307;0.03734085012080764;150.0;0.2585259773613681;0.19049243985680403;0.03640074878506032;148.0;0.25684851591153174;0.19213612586249212;0.03703273152029232;153.0;0.25721534686113856;0.19383765328669414;0.03768837945867618;147.0;0.25850349746319534;0.19378360518802165;0.03766954605726774;151.0;0.2628089943612594;0.19514248540155468;0.03819896393882735;154.0;0.2714005404653605;0.19529818019279493;0.03825612104512395;159.0;0.2667654869246746;0.18883460120560705;0.03576994490918187;153.0;0.2539211494546934;0.2092375511378832;0.043921755839272214;157.0;0.27460327957792036;0.24214154263312196;0.058824978486285005;158.0;0.29165598176631896;0.242526889903151;0.059010171556311615;160.0;0.2940399066604756;0.24553717235869965;0.060484170579146936;160.0;0.28171286260818723;0.2769709307404309;0.07695732591191445;156.0;0.28317739215510573;0.2971796414752086;0.08859380992397545;152.0;0.28863101320972745;0.27965202033069164;0.0784560502869489;154.0;0.2803158093463116;0.19169896183707794;0.03686267263331717;162.0;0.2678500354278442;0.17888299089286228;0.032091034382268485;157.0;0.24391592905290374;0.1784841608266814;0.03194060622747402;153.0;0.24272548024214044;0.17927744147956354;0.032218734013122634;150.0;0.24395258869447536;0.18123247851146346;0.03292781081181762;149.0;0.24665915722410803;0.17881924141637395;0.03205871055574416;151.0;0.2492480809210378;0.17594187095053754;0.031048475923168162;153.0;0.2549366732372722;0.17470870260689875;0.030612167564259135;150.0;0.25859821322086457;0.18005134286725988;0.03251497476057567;162.0;0.24377026062846627
0.18566014763464259;0.03458167908962982;170.0;0.21581497475545786;12.0;0.18820075555481797;0.035535307806329894;169.0;0.212771441622297;0.1857504899056084;0.034611499335786194;161.0;0.2044697095895579;0.1874033001706343;0.03523186708142999;157.0;0.20100875704292442;0.19402981876216505;0.03776087492431476;157.0;0.20680528693595765;0.18679044389138857;0.03499181339439241;150.0;0.2038052667611705;0.16858425457382056;0.02850218753079773;145.0;0.19365253820114176;0.15374436906493866;0.02371453370485309;170.0;0.20268024343675142;0.1298449404927815;0.01691437876316053;143.0;0.1855939852504673;0.12987590634056395;0.01692265409051137;138.0;0.18444287468664072;0.1304619646809277;0.017075866473786987;144.0;0.1852360292213517;0.13186209447445796;0.0174441523219035;141.0;0.18662357286388703;0.13268284256757265;0.01766207765741826;142.0;0.18918834355415287;0.13164073901734663;0.01738581731941457;162.0;0.19539460724413643;0.13213291642340255;0.017515257740738303;158.0;0.1941475017609479;0.12748226673223634;0.01630482826241313;144.0;0.1818868671279883;0.17816790691737938;0.03182707217223766;161.0;0.2234203804929529;0.20821469528145992;0.04347082708879925;156.0;0.23834050088343908;0.19766111589373217;0.03916180163822316;154.0;0.23658812989353173;0.19356310941200405;0.03753513673561961;153.0;0.2234559541350748;0.21733487479352112;0.047334755159431446;152.0;0.2213805211043577;0.23136546198406985;0.053669283678916775;148.0;0.2233362260182861;0.21794298888573066;0.04760902759564749;152.0;0.217072386440344;0.16258157304399576;0.02650156126433878;163.0;0.21670353608027149;0.14081606784791498;0.019868151004785485;164.0;0.19429486502552895;0.1432218743684866;0.020555090338475274;163.0;0.1946840736343414;0.14568887625329568;0.021264682480999615;161.0;0.19644389295802933;0.1463465585508867;0.021457641670442937;162.0;0.19824989081246436;0.14143603483921108;0.02003818486998513;165.0;0.19931566825317248;0.13821233535766048;0.019131723398869076;169.0;0.2024597074812852;0.1394416584982273;0.01948159573201331;168.0;0.20579011079232576;0.14119782774739148;0.01998067529039902;168.0;0.19348032691361272
0.10643345289061208;0.011365020157026656;172.0;0.12763047103263173;12.0;0.10627393446492378;0.011331131996847366;174.0;0.12473619494753936;0.10179271358997682;0.010391582823445232;169.0;0.1207573321625235;0.10854168907689817;0.011810478005670517;164.0;0.12281330077731434;0.11463211037646268;0.013171686278304803;162.0;0.12478673857911668;0.10208448905667772;0.010447123778938035;155.0;0.11828099253387316;0.08928640485978719;0.007987679093643972;147.0;0.11290180448548164;0.0851706006100367;0.007276220742092736;165.0;0.11604441867168928;0.07522030347633554;0.005676162855166662;148.0;0.1091418916390671;0.0804045689327978;0.006482789987500601;147.0;0.11077954074369266;0.08258195752358316;0.006838487850603786;147.0;0.11101898652224043;0.08196701471484526;0.006736736926560607;151.0;0.11119738523445051;0.07853842216011729;0.0061860347536024825;150.0;0.11140985124222905;0.07639288191470694;0.005852946609238633;170.0;0.11150861145655515;0.08361788035650544;0.007009169746297805;160.0;0.11590963683990428;0.07359255889961351;0.005433194676745612;147.0;0.10700131342419918;0.0685853272813612;0.004717282415153845;150.0;0.11983251395049538;0.07447934804759068;0.005565072285584128;139.0;0.12416918625597329;0.07195538545042171;0.005192624066479534;139.0;0.12214240869368216;0.06594897810446863;0.0043616861311325476;147.0;0.1173355668215209;0.06744275817615182;0.004563200005796313;158.0;0.11603462667786336;0.06915653046807323;0.004798211362333113;153.0;0.11712489207947763;0.06652015926931085;0.0044391026087447225;156.0;0.11359793390333597;0.06447123308872353;0.004163294305968973;150.0;0.11578615793904944;0.07202225913146582;0.0051884515550620425;157.0;0.11470774305213079;0.07444315490059328;0.005541366605681161;163.0;0.11419561961904585;0.07461896581717054;0.005566280893448723;162.0;0.11440365064442808;0.07076047312206561;0.005006537889393508;154.0;0.11352904128763008;0.06597516173196952;0.004351542195989799;156.0;0.11338788589406784;0.06299102263704356;0.0039651058763402625;165.0;0.11360324436851761;0.06067860251361551;0.003678381013623504;161.0;0.11264373592036489;0.06691659239333204;0.0044808430309292895;157.0;0.11040366678025676
0.16482420708480564;0.027255811026457064;168.0;0.1933274229072785;12.0;0.16648313861710945;0.02780719147832639;164.0;0.19185427277625236;0.14301752356953978;0.020520645255349503;163.0;0.18025564808563252;0.13495243990309516;0.018271664848467897;169.0;0.17824462794161602;0.13955978583443931;0.01954040205474829;163.0;0.18274492795486444;0.12373280440181368;0.015359737212265332;164.0;0.1743210898839103;0.10752444228785639;0.01159928890969061;161.0;0.16430169052509547;0.13399088770055498;0.018010669383270332;157.0;0.17927289384951806;0.1041989646288335;0.010890854466027045;155.0;0.16389391880807674;0.11070301837777598;0.012293983734284268;159.0;0.1658012454401997;0.11223333580924412;0.012636773994186981;159.0;0.16616819578377529;0.11437771011298108;0.013124904508421591;163.0;0.16925442022495296;0.1152531021083803;0.013325704697659995;162.0;0.17180460821036372;0.11497539114869082;0.013258786963416652;169.0;0.17506486702747395;0.12139438266154458;0.014779793861338078;163.0;0.17739956424875647;0.10163166538802867;0.010359766057686346;157.0;0.16354457592691785;0.09645995476284566;0.009334765931404287;140.0;0.16230487406919536;0.10423029135263226;0.01089920805177541;137.0;0.16733956379733417;0.09544727060187812;0.009140033637040442;137.0;0.1626949418603995;0.08864532171039113;0.007883797830784378;147.0;0.1532600102150976;0.09109159252329266;0.008324717892249076;153.0;0.14975452067845674;0.09316718422112723;0.008706917331429828;148.0;0.15107599746002956;0.08918563501348505;0.007978458661153693;147.0;0.1480459298328463;0.08806089182430138;0.007779757251638386;138.0;0.1578368691435778;0.09196380581510678;0.008484925904521047;147.0;0.15279554894278788;0.09326715175755888;0.00872728262666223;149.0;0.15190096332589242;0.09290740203056513;0.008659997763122597;146.0;0.1509378687409188;0.08963548799718357;0.008060827460763401;134.0;0.1502678873312393;0.08704053872018482;0.007600759913432876;147.0;0.15079071283460352;0.08690604819334168;0.007577097931488506;150.0;0.15377333876043314;0.08427513631643263;0.007125126448011635;144.0;0.15251551706766867;0.08763306192463279;0.007704307105950756;144.0;0.14870491675069042
0.21585766346118043;0.046692980826019935;151.0;0.2498061479282779;12.0;0.21829103209575054;0.047746127089204914;144.0;0.25131569625640177;0.19054991347814135;0.036398739341452054;145.0;0.2335066275880509;0.17738591917654997;0.03155406876458606;152.0;0.22183653651218124;0.18110905458029072;0.0328986538381872;149.0;0.22645880987924671;0.17010338632775993;0.029023996364009583;150.0;0.2192410045300579;0.15468173727875134;0.024000220284218898;151.0;0.20920890086258592;0.17903951090077558;0.03214607957798899;145.0;0.23479723422501084;0.12416051004593777;0.015466497881904651;151.0;0.20369666557808397;0.12910303882155208;0.01672213756491602;153.0;0.20601501222964191;0.12909808350800484;0.016720192645717693;156.0;0.2083653587672928;0.1328113225605305;0.017695984150339693;158.0;0.2125205139864751;0.137914129881162;0.0190818276234534;156.0;0.21562279863092895;0.14360950865325084;0.02068438932399297;158.0;0.22220869538320695;0.15244733006825895;0.02330707277188971;154.0;0.22647777337681638;0.12310578199897992;0.015203287211057228;148.0;0.2023830737452453;0.13930846859314247;0.019462046174044234;139.0;0.20358911769348353;0.15716854480130235;0.024778079781531723;139.0;0.21296457990352854;0.15535125030267402;0.024207125379002725;141.0;0.21255000638582605;0.15167852642285462;0.023059996228575623;148.0;0.20462342249383844;0.14948098157290107;0.022387405123682095;140.0;0.19954897738358732;0.14436982299133644;0.020856961140148036;139.0;0.19883007216939055;0.13509839868834103;0.01825919278500494;138.0;0.19396357483793308;0.12512316111217267;0.015698463691758785;144.0;0.1965765586314401;0.11974026763209338;0.01436507428691841;144.0;0.18115333634223627;0.12233335052296594;0.014995808271836695;145.0;0.18210790465237428;0.12228295320178377;0.014985890486022148;144.0;0.18133479589783716;0.11862821292592361;0.014098552656014278;144.0;0.18126575348641882;0.11167026435749369;0.012488827227188021;158.0;0.18084788445907715;0.10986645440129109;0.012091378892304923;150.0;0.18451047590920552;0.11249590466956498;0.012680126122312396;139.0;0.18735901072093034;0.11721631535686018;0.013762014317640913;142.0;0.17928628824566795
0.26885115519087116;0.07250973433350091;155.0;0.2884263368706397;12.0;0.2781808793424587;0.07763758292904328;150.0;0.2952455911303336;0.2553387160366604;0.06541007304179854;147.0;0.2804059722598;0.246952263276048;0.061172415622858564;149.0;0.2651696918562443;0.2571358830845826;0.06630083096281977;153.0;0.2679508581893987;0.24449239579817286;0.059935465450894176;153.0;0.26101121778081504;0.2232815466472807;0.04999541219055628;150.0;0.25151031810357527;0.21974206999853604;0.04843957677424575;157.0;0.26543211107305675;0.191450074401968;0.03675768345583226;150.0;0.2367923783260832;0.1951965750012315;0.03821718208743412;149.0;0.23837413516406372;0.19697533253024987;0.03891816406553685;150.0;0.24185310729973447;0.19922753060443285;0.03980896677572326;157.0;0.24449139698951236;0.19695844045275218;0.03891611433643387;158.0;0.2445539325202885;0.1968299632759751;0.038866436728107606;157.0;0.250458623699321;0.20140474376779227;0.040695923864003676;158.0;0.2561617955793491;0.1868338836877371;0.035010988104867566;148.0;0.23332249585616033;0.17177827991214295;0.029601628360784185;145.0;0.2450577393941793;0.1895851776923508;0.03605679640878906;144.0;0.2576538529193187;0.19076897526340253;0.03649956961818587;144.0;0.2561259096128241;0.19084454395705727;0.03651978911839135;146.0;0.2443366126345263;0.197057099872084;0.038946320868827156;148.0;0.24261336708225922;0.20277738702577924;0.041232570262572245;148.0;0.24720873722334505;0.18721364567723903;0.03515128400480887;145.0;0.24008347059675134;0.15753779678225774;0.024897710992036935;147.0;0.2363331855140804;0.1479634703584357;0.021955384008210226;136.0;0.2160645254310768;0.1502241738302193;0.022633482530186246;139.0;0.21659113745568584;0.15245083127772882;0.023308142700692914;141.0;0.2176130803662563;0.15265885066582663;0.023374496734165945;141.0;0.21996207094051987;0.1502594758583846;0.022645323149727052;147.0;0.22249681857889061;0.15168036578852104;0.02307790424379413;144.0;0.22975621182117756;0.14883361065907713;0.022222160890499127;138.0;0.23170972658272077;0.1454628071127938;0.021220542110267228;136.0;0.21530232413802494
0.27872669868360705;0.07791549057864423;157.0;0.3118066857875419;12.0;0.28990458851857037;0.08425697638870755;160.0;0.3154229668535152;0.27294247372214264;0.07469952696305704;163.0;0.3050416895323858;0.2683536968935897;0.07219334072650314;166.0;0.29497722439599405;0.2842698285418159;0.08100095331149797;165.0;0.30011390772134555;0.2716747979187816;0.07396048605834486;166.0;0.2946884252269701;0.2468265510292895;0.06107037511939909;165.0;0.28561295048585505;0.2314778162430518;0.05374219971549866;162.0;0.2846307302744289;0.2269015213964232;0.05165270044700803;153.0;0.2756944096043248;0.23148092314166463;0.053757337295703644;148.0;0.2748998729352885;0.2308395305063012;0.05345839381620353;152.0;0.2748147913967589;0.2269915243161228;0.051689639644675066;160.0;0.27415245692504536;0.22139558534425197;0.04917250369414441;166.0;0.27244093049857265;0.22206211502497986;0.04946449386374578;159.0;0.2752875076427258;0.22127586407026817;0.04911575052460218;159.0;0.2778637088556665;0.2211267404214606;0.04905463568151936;153.0;0.2731877101378954;0.17360366689009055;0.030209236668326908;163.0;0.252006258616283;0.19396568512761164;0.0377127650350294;164.0;0.26595901567018465;0.19864615496443458;0.03956006775199133;160.0;0.2683505256467439;0.19734350334343176;0.039024266584446854;149.0;0.25341874223255606;0.21359359537916142;0.045699008817066074;153.0;0.2528405684348025;0.228105163579302;0.052116629232298615;149.0;0.26176167230518815;0.21172078825504687;0.04487970150732449;150.0;0.25492251641643343;0.16148062595942556;0.026131440044289213;154.0;0.24664786772925507;0.15342836710653196;0.02355145160823394;154.0;0.2303914385721673;0.15280419304554718;0.02334486826836522;152.0;0.2293411702118784;0.15503713034064573;0.02403822824014128;156.0;0.23176032166298446;0.15883278186144995;0.02522133739437165;151.0;0.23449190613038526;0.16159581666919492;0.026122813595028656;151.0;0.23854313831466634;0.16380286570674035;0.026873547501893292;149.0;0.24503980025286312;0.1587368634038023;0.0252390807954908;148.0;0.24468067767931007;0.15054993811022255;0.022672905748668565;153.0;0.22941744503206388
0.262156192600786;0.06863718063576965;147.0;0.30925121973483854;12.0;0.27709311304992046;0.07676505153171083;155.0;0.3120404009320071;0.2790686146208945;0.07779348651536921;162.0;0.3072834996981723;0.28040799128413596;0.07840910194378863;156.0;0.301666634335913;0.2974649021825385;0.08815232399728523;151.0;0.30897456573307874;0.2870031558972322;0.08206183756486603;151.0;0.3042772218762478;0.2593003521486705;0.06701565281828782;159.0;0.2915016365903219;0.23694099588378545;0.05606252538425968;146.0;0.29036053107251625;0.22403838811971089;0.05019900725784415;150.0;0.28460533751896033;0.22708803709096656;0.05160073391833429;148.0;0.28270496840039827;0.22246840503088752;0.049511276691869874;151.0;0.28080346748972274;0.21555501620089604;0.04645773208370419;154.0;0.27931993617305956;0.21041668853054274;0.04427633320552066;163.0;0.27985052276447736;0.2135234445541003;0.04556185770416656;153.0;0.2825588884542052;0.21547532339923592;0.04639067784338657;149.0;0.2838552793110994;0.2222713482150513;0.049434052935047004;144.0;0.28462323342454243;0.15588164829682336;0.02437657833955709;158.0;0.23094152453373018;0.1814157068027512;0.03301690651695273;163.0;0.24165820941615634;0.19120243589323593;0.036678041113908745;164.0;0.25339913423719146;0.1820331675742997;0.033242474959501854;152.0;0.24299039195793348;0.19295794506913913;0.037351892872854314;150.0;0.24271352199218338;0.202819799365395;0.04126553706633544;147.0;0.24963429183161648;0.18804168601624932;0.03547471016931129;149.0;0.24275412367334087;0.14365767322134343;0.020705157515726654;154.0;0.22974871253924548;0.1400877616314374;0.01968813155278865;148.0;0.2236052066643387;0.14038340993734136;0.01977166250682431;145.0;0.2222721471680687;0.14044448389638495;0.019787747218799785;155.0;0.22288539805562188;0.14201096796968754;0.020232379754179294;154.0;0.22337761131444073;0.14114094758249182;0.019985434288257973;146.0;0.22600504630705667;0.14102375717471968;0.019953103282369704;151.0;0.2306677605677136;0.13850949933001142;0.01924663604920064;149.0;0.22934038010765498;0.13423969028550722;0.018077212287084334;152.0;0.2208741557129773
0.28596097476805143;0.08201915802752259;151.0;0.2951949744790914;12.0;0.30784829072599046;0.09506125850916518;154.0;0.30470074026219435;0.3208286297868774;0.10322471203218199;155.0;0.3038561509317816;0.3367048877097907;0.11368341223777313;150.0;0.30164015349125545;0.35701760950671696;0.12780892096880692;145.0;0.3114790024893018;0.34464755927430585;0.11911196860754561;145.0;0.3069280985516264;0.3101704775831239;0.0964893302786051;152.0;0.29136964921804315;0.2545001288615109;0.06497726571283018;150.0;0.28181510241452623;0.23946369953201624;0.057528964944630584;149.0;0.2719848256042314;0.2388391467630401;0.05722269196173485;146.0;0.27071325547883157;0.23315785116432702;0.05453289721532135;149.0;0.26963966461033534;0.2282325595661023;0.0522560121872673;150.0;0.26789337940669106;0.22432940865788067;0.05048634378289588;155.0;0.2672973207821161;0.2274245967680044;0.05189011118095974;154.0;0.2719949782178494;0.2341311489228361;0.05499039669523151;150.0;0.27348262703785897;0.24011767289149022;0.05784414613194445;143.0;0.2729982761168871;0.18581264172498235;0.034639529698276356;150.0;0.2390271656509658;0.20926636128588058;0.043935256184529356;157.0;0.24560083077690475;0.216165514742478;0.04687788094835787;167.0;0.252020587524402;0.20658846078389045;0.0428172744481792;163.0;0.24224254720866614;0.21194070354000594;0.04506259443328847;154.0;0.24382810177148362;0.21565092245988665;0.046655229506060436;152.0;0.2488073312092598;0.19895497068041804;0.03971091232352174;150.0;0.24007423076365295;0.17226514930149486;0.029771983117463336;152.0;0.23860701135119705;0.16786007682513684;0.028268499255081164;147.0;0.22860976192123136;0.1702461144527115;0.029077118763820967;144.0;0.2282627145354606;0.17183182607668812;0.029621466518933253;154.0;0.2279578714073442;0.17140773642883395;0.029474685237062762;158.0;0.22885702031945562;0.16567445532105368;0.02753760412760548;151.0;0.23071387748454614;0.16247821134719911;0.0264857345072541;159.0;0.23821087366035637;0.15922040964069942;0.025433103063059306;154.0;0.23808459267669682;0.16257509212502394;0.026517512702995547;155.0;0.22605272297318268
0.26966976476702154;0.07275675866154624;156.0;0.2899807243987384;12.0;0.2887612239662729;0.08346430440888021;156.0;0.3001712261144481;0.29828234247548746;0.08908420678967681;153.0;0.2987368320423053;0.31492757111631264;0.09924948368542359;159.0;0.2932611328809643;0.3380606791881941;0.11440826710432606;154.0;0.3058347559323378;0.32794093006236125;0.10767225060773135;148.0;0.30337120074603663;0.29425084841631377;0.08668778608924449;148.0;0.28770684561742754;0.2326522206453649;0.054117443488356586;157.0;0.27427010541522673;0.2265689121187746;0.05144851475140313;149.0;0.26930355882436724;0.2229958862736847;0.04984007495264267;147.0;0.26648329952232397;0.21757753606236988;0.04741449714309785;151.0;0.2642249530422027;0.21328375203826766;0.045533667115109436;148.0;0.261144481143452;0.21237791627822508;0.04515226950147494;147.0;0.26187308398501713;0.21591797819911052;0.04668779060192096;150.0;0.2680094351402022;0.219678801217968;0.048321895811562696;155.0;0.2684606119062264;0.2284061294446306;0.05228081594287962;148.0;0.2688965213573916;0.19987212199318313;0.040079028174506454;161.0;0.2561789693676325;0.2244009511970246;0.05051805052614342;162.0;0.2636968145599138;0.22463694840373744;0.05062277967256287;168.0;0.26142333482705843;0.21925812029128475;0.04822497954678909;166.0;0.24880409427985;0.2264582692350662;0.05144214969644895;163.0;0.24614987658183243;0.22926088597939384;0.052725168208101934;159.0;0.24840349112026539;0.2147399581759248;0.04625573916476099;161.0;0.24210020716749586;0.184272298217077;0.03406459098051363;162.0;0.25099621310539705;0.17368493401539783;0.030265097992813374;160.0;0.2342095760597284;0.17430367619079615;0.03048033076500394;159.0;0.23240195007665812;0.17672145345573875;0.03133237226686719;165.0;0.23176670649167302;0.1772828590589643;0.03153129279945372;167.0;0.2324473714989356;0.17304404464184459;0.03004146695297446;170.0;0.2339891458205412;0.16385446739616974;0.02693384712817024;168.0;0.2380001554826098;0.16145810753669668;0.026151984083402455;163.0;0.24090007492830098;0.1716536400898341;0.029560981427500774;167.0;0.2325057642757151
0.23369734754957094;0.05476310102941255;158.0;0.29679911781647533;12.0;0.2537710513120607;0.06460211287477345;157.0;0.30775088031218284;0.25566651689889863;0.0655588210240344;164.0;0.30354016442779974;0.2611907004202734;0.06843645874112575;158.0;0.29244105242281304;0.28687131699432455;0.08256040671668943;156.0;0.30246676207906165;0.2793158471206585;0.07827193608795913;150.0;0.2987872882082884;0.24554129583609013;0.06048372893809961;151.0;0.282325949377112;0.19997579011502473;0.04009340332730904;169.0;0.2746103226089117;0.21406012551598705;0.04597149118060644;163.0;0.27256097936903984;0.20768811877475704;0.043274496291610995;164.0;0.26810069900366923;0.20550368431453533;0.04236853861664356;163.0;0.26700656811954815;0.20401610174967885;0.0417576310619975;157.0;0.26746868643374083;0.20010127120759577;0.040170276532625095;153.0;0.270093951714115;0.1980012855310002;0.03932922070111316;155.0;0.2747579331515206;0.19080202824204176;0.036520247968571846;163.0;0.2729784797833582;0.21358411918009648;0.045766090844675665;161.0;0.2697325244506838;0.16960978302574867;0.028851678793844735;162.0;0.24708456578772825;0.18429253289608663;0.03406601933653208;162.0;0.2511372514316161;0.17861561017781816;0.031996518012005856;159.0;0.24634137718373467;0.18548713177504678;0.03451520755407578;156.0;0.2408980476965289;0.20315619030370904;0.041402736705376066;161.0;0.24496203132900282;0.2159853264001776;0.046797917744284594;157.0;0.2537062796864769;0.20335124439689264;0.04148042273547258;163.0;0.2485437491923977;0.15778080481111098;0.024973527198704402;162.0;0.24176009409679622;0.15340622347826768;0.02360057403818461;159.0;0.2348927598236715;0.1538761306612849;0.023743578244782692;156.0;0.23476903472768168;0.1546188996837835;0.023974398379226883;160.0;0.2347069147650071;0.15581780056525193;0.02435280712487578;154.0;0.235400792315818;0.15499138139867022;0.024092993506135037;167.0;0.23484448548479797;0.14139445750431864;0.020055500897286128;171.0;0.23016342301897805;0.13890972642490107;0.01935739977239778;164.0;0.23114488337176675;0.15029883515682957;0.02265864017173418;160.0;0.23197023346187223
0.18673587589378118;0.03498112587270267;156.0;0.24830587284132896;12.0;0.20309511367868424;0.04138148853292636;157.0;0.2551831522481776;0.203168819883623;0.04140977606119204;163.0;0.24826765556249594;0.21246147015833233;0.04528603319616138;148.0;0.2433512909657369;0.23344908254827962;0.054669781104614484;146.0;0.2497447745380084;0.22380659282181672;0.05024502143838749;145.0;0.24237086394092647;0.19548748923721138;0.038335219546264954;143.0;0.22951749627257048;0.15557441624191898;0.02428141636480249;161.0;0.22102537869769145;0.17222289361923568;0.0297576123808373;157.0;0.21796027813011726;0.16829572730711687;0.028415973832886396;154.0;0.2156816966553682;0.16829346050319563;0.028414976570989063;157.0;0.21646189000297417;0.167098763246406;0.028012463314479572;160.0;0.21813489076425358;0.1610515052996447;0.026022264976345078;163.0;0.21720598327135784;0.15798984846082578;0.02504218348919745;158.0;0.21894332678723513;0.15017140422761865;0.022624357092554285;169.0;0.21769536415883978;0.16964373592470694;0.028872706722087225;159.0;0.21495423125607843;0.11405706059903235;0.013051686759517494;142.0;0.17380548356444847;0.11693691550619158;0.013719040895993398;143.0;0.17348214667288167;0.11460731028047798;0.013176456861551049;138.0;0.1723014528777204;0.12904076471750503;0.016699401374997366;135.0;0.17493084668155115;0.14727910012668258;0.021752258168107684;137.0;0.18514488479948757;0.16034184576661165;0.025783983715903357;137.0;0.19582398802669793;0.14963257395590118;0.0224558527349494;143.0;0.19069356995658218;0.10999359706190265;0.012138206017018947;138.0;0.1736983761857708;0.11667047975046098;0.01365626406314392;158.0;0.17557348757956268;0.11848199479109468;0.0140833690111438;158.0;0.17780686750768715;0.11853778066604444;0.014096653364950593;155.0;0.17917588236085702;0.1181073848479029;0.01399389535069777;140.0;0.18026686315467702;0.11538772544774703;0.013355357160132674;149.0;0.1774012897421989;0.1046485069484539;0.010986719341368602;153.0;0.17145364187049641;0.10263192925239312;0.010567322514672964;139.0;0.17054479178678203;0.11247332506564109;0.012690664002128553;153.0;0.17272547244168426
0.14786911237801398;0.0219286585484736;146.0;0.20363912657669353;12.0;0.15850261416164135;0.025204598258910978;146.0;0.209049269474564;0.1491491459597073;0.022320763845651338;150.0;0.1975786352380315;0.15462951152602092;0.023992564647265527;143.0;0.194900420319675;0.16684793119245747;0.027935071376485692;137.0;0.19898570919165529;0.14654294341931082;0.021549442092801695;136.0;0.1892668507206058;0.12431563791462162;0.01550400418011697;131.0;0.1782302141531147;0.1291212024468177;0.01670573420204736;135.0;0.18417083765946396;0.11388888985081641;0.013014535457244061;127.0;0.17102517858820843;0.11478845001108366;0.01322046126337958;121.0;0.1707859891551093;0.11291052070428408;0.012791097809337647;121.0;0.17203026515596026;0.1101173603365121;0.012166545970891769;130.0;0.1698417764491591;0.1079819323103316;0.011697053932535093;139.0;0.1692920559013302;0.10668947784235853;0.01140956234187282;135.0;0.17145781073767444;0.10709835845732243;0.01149938847978706;146.0;0.17071558277082594;0.1124747525660885;0.012692777123295645;127.0;0.16793042795209673;0.10404751071488859;0.010828797094346355;142.0;0.136000123561405;0.11850990774852588;0.014054069751553464;140.0;0.14433757724719368;0.10562537260844111;0.011169095883781168;137.0;0.139532265188114;0.09087819291616575;0.008266167882257229;135.0;0.13008484697769293;0.09057414672675101;0.008216208225525344;136.0;0.12760990202850642;0.08703048753745364;0.0075849486411213125;137.0;0.1252914531635082;0.080425529579401;0.006479366329394227;144.0;0.12163902108821718;0.09054631209043991;0.008191773083921175;142.0;0.12944544360052332;0.06227620647941146;0.003880615529100533;161.0;0.11236597944800233;0.06874427253896295;0.004726797673365492;158.0;0.11474994660670979;0.0693682821652724;0.004808385852805754;156.0;0.11516785158120188;0.06892103569310379;0.004741491232182244;150.0;0.11584760724451564;0.06845255061383079;0.004678998063348423;150.0;0.1160463312415731;0.07113797119117231;0.005062221762895757;147.0;0.1211265694331591;0.07585943591340215;0.005752840920380542;132.0;0.12300009859924858;0.06018063941926992;0.0036221142843761178;161.0;0.11095523258417991
0.24028930160722142;0.05789382721585722;162.0;0.2464023723329729;12.0;0.2559166782385995;0.06566640719354655;158.0;0.25388646046624846;0.2491856881554889;0.06226669349470688;162.0;0.2439819808203695;0.2584147803570977;0.06699670671362265;152.0;0.244623855131681;0.27791790794396964;0.07749083498303612;140.0;0.2545781257980251;0.24953586629872399;0.06247110063913359;142.0;0.24481496655147902;0.21353351293839262;0.04574688978797283;142.0;0.23276416392224036;0.21203555112051864;0.045091757098445415;160.0;0.23597448964197124;0.17613361358635932;0.031102310513138845;146.0;0.2221293382578538;0.1736036920177896;0.030218040803551557;143.0;0.22100773299552962;0.17252232196538608;0.029844287333480376;139.0;0.22208199205501228;0.17189064404241716;0.02963090624859169;143.0;0.2216435816255914;0.17159990715877782;0.029535593710147242;150.0;0.2228848127292761;0.1767502599608708;0.03133996039637678;156.0;0.22477519163985776;0.1818491310577879;0.03316994101333732;160.0;0.22156523163696362;0.17490738483256493;0.030679140384176355;145.0;0.21990604046246348;0.19549134123943832;0.038289255783760065;164.0;0.21937546652155085;0.2306815835562717;0.053311707924619874;164.0;0.23523751918229086;0.22468557807263864;0.050578018323169695;164.0;0.22392395225061587;0.2139512793378397;0.04589975440157874;157.0;0.20556866182798572;0.21688695769435187;0.04718850303124889;158.0;0.20139744083331768;0.20739022911928937;0.04314732595150845;152.0;0.19895247021633175;0.19591668905014353;0.03850584348162996;157.0;0.1951598470426268;0.18271942291508422;0.03347349755095494;169.0;0.2086592899969051;0.14950677415800767;0.022401269802764162;162.0;0.18249340914487577;0.15407957206568418;0.023787546249021033;160.0;0.1864983681403821;0.15246426315478548;0.023282031141470677;160.0;0.18743271380671722;0.15025061421200567;0.022603024971996292;160.0;0.19025734280212586;0.14870846920431646;0.022142115960033692;162.0;0.19082947998658986;0.14650610917715934;0.021505956988264262;165.0;0.19552232187867916;0.14754025230725187;0.02182040316006055;160.0;0.1968208044162003;0.1491550914297256;0.022302397243755965;164.0;0.17986365986303476
0.284831013460096;0.08135788029987168;164.0;0.2762779085476958;12.0;0.31058879822248653;0.0967388046923237;161.0;0.2868503879976783;0.3065725338353355;0.09425955936245078;163.0;0.2852163154850575;0.3049319128306467;0.09327069672673646;149.0;0.281797220073002;0.31599715422305785;0.10015713937154336;151.0;0.2904023071429035;0.289238575893671;0.08389798742023599;152.0;0.2799047304865584;0.25462961253210625;0.0650234084993618;151.0;0.2655872854797465;0.23779026564356007;0.056700741310021695;167.0;0.2635021570247837;0.20068845133123842;0.040399842514764944;154.0;0.24835030479873602;0.1983866267605106;0.03947785133208802;155.0;0.24795055081470205;0.19948134391497274;0.039918150360041205;155.0;0.24880824165420126;0.20251480895925483;0.041140237009679344;158.0;0.25174896651520645;0.20569612116012295;0.042439628029032;162.0;0.2563790993291291;0.21347167964215774;0.045705307880056466;170.0;0.2620534088815702;0.21635099540681685;0.04694153550679771;171.0;0.258403122267484;0.20009662096416733;0.040159564377253126;158.0;0.24606089816675217;0.20905798499981249;0.04368606515859451;161.0;0.24066598045390017;0.24086961042803043;0.0580123199557536;160.0;0.253511623605973;0.2402861016736886;0.05774371960876561;161.0;0.246281823236165;0.23716430833135865;0.05629773333380507;153.0;0.23383800119471465;0.24604466083046286;0.06064148286341542;157.0;0.23166885523924008;0.242260391156575;0.058794895893118766;156.0;0.2320467131218199;0.22721803318003947;0.051721269315450284;154.0;0.22807887988770761;0.19673871479507848;0.03869184143532138;166.0;0.23292378857260757;0.17359583003155762;0.0301697581097861;153.0;0.21419634554300757;0.17734119096781484;0.03146959601668565;155.0;0.21606075494274316;0.1791847590157269;0.032117190421279425;155.0;0.2172947479032222;0.1800414334486776;0.0324156946815922;152.0;0.22091634860249193;0.1796550643934644;0.03228836101102906;158.0;0.22276559928349673;0.17389433702513168;0.03024792223777586;159.0;0.22751224460848005;0.17058878986916196;0.029112590398932468;160.0;0.22625621364107165;0.17333793551844118;0.030082628369414114;155.0;0.21172599864112368
0.27855571280360886;0.07784266465800203;146.0;0.2967363684534885;12.0;0.2995322439931549;0.09000801453207281;144.0;0.30781230498390244;0.28986873499987315;0.08429315240484074;148.0;0.3066157417690091;0.27676915713659683;0.0768511727730598;136.0;0.2984250662951729;0.2810444382065517;0.07924431524666231;146.0;0.3035462337158608;0.25893159936445503;0.06726478017015164;145.0;0.29282703084336625;0.22961753373903065;0.052896608363497466;144.0;0.2769985807879107;0.22871725693991374;0.052482567607357304;149.0;0.27645439324919896;0.2025145757810729;0.04114064085047511;143.0;0.2650461328164698;0.20357645360547072;0.041575231862613166;143.0;0.26571212558658747;0.20738264546352664;0.04314038861755091;141.0;0.26771401792333216;0.20955339902978243;0.04404927878435944;142.0;0.2702223308862294;0.20982351045275652;0.04416844440044848;149.0;0.27343883674127634;0.21667998374787809;0.0471036350279248;157.0;0.2808392160540868;0.2168844111739181;0.04719271306939944;156.0;0.2783657794081875;0.19816822550160468;0.03939618230449218;143.0;0.2587603505947709;0.2335098471679664;0.05470490286486838;138.0;0.24433057942519398;0.26584760449762584;0.0709045023814569;140.0;0.2563394654628235;0.2660550289237681;0.07101875651601805;146.0;0.2545420566503661;0.2545060749712015;0.06497735437005321;136.0;0.24761499994796646;0.26861770572708826;0.07236863352873847;138.0;0.2486410741389167;0.2722042287695873;0.07430079790945833;148.0;0.2512441250398627;0.2522007750972291;0.06376998262426768;147.0;0.24459411280485216;0.2078185144483638;0.04333035757279981;145.0;0.23619433721920427;0.18272139233028167;0.03349627776385725;144.0;0.22192944371662632;0.18340330576675315;0.03374676169940782;145.0;0.2202119595732126;0.1854813621250501;0.03451545847981931;150.0;0.22043346351536042;0.1855463790528993;0.034539338856735574;148.0;0.2227292690167116;0.18625434690859477;0.03480254213685018;153.0;0.22507244566106607;0.18301005673827273;0.03360205920959631;141.0;0.23106796256018966;0.18461112183181055;0.034193032693671445;142.0;0.23299739594197585;0.1811584318175598;0.032924900710925416;143.0;0.2204394225880124
0.2692220057851711;0.07272095474524451;162.0;0.300775067441154;12.0;0.27280328080548827;0.07466798261310065;162.0;0.30360246186201445;0.2612846119970789;0.06849832106962467;162.0;0.2997489098898241;0.26446564985231125;0.07017738574363909;155.0;0.30205023167476347;0.28550327238470186;0.08178523035546002;152.0;0.31253037910616116;0.2632141390102164;0.06950836786606608;151.0;0.30210313665558286;0.22593586870495241;0.05121837745365045;155.0;0.28444111561314456;0.22536055998296717;0.050956214115210945;163.0;0.28353541801154875;0.2136313319559939;0.04578975984901328;153.0;0.27725205383310964;0.21861221051368127;0.047948935414767156;151.0;0.27958030831233943;0.21706505103785462;0.047269935632724976;151.0;0.28003093347158375;0.21242793768707705;0.04527099108865913;149.0;0.2794923578030525;0.2080952132515872;0.04343948845415505;156.0;0.2790124617135774;0.21339260132006269;0.045684584285056375;160.0;0.2824855692215359;0.21662533155564795;0.04708207434554831;164.0;0.28088526693105303;0.20606571657724962;0.04260424940441852;155.0;0.271554643386223;0.29993545156069423;0.09021023085021894;141.0;0.2828339317983639;0.3421094593749869;0.11735221491034392;141.0;0.29876246275010593;0.3331583575758901;0.11127018180701342;144.0;0.2949964207066176;0.30834202906391345;0.09529621468767839;138.0;0.2787802648775479;0.3197057668757095;0.10244446055863424;135.0;0.278335112262938;0.3261785258853568;0.10667049463097097;144.0;0.28266818308657793;0.3016537509312506;0.09125585670357686;148.0;0.2742543276452305;0.268441310906948;0.07224365283512785;145.0;0.2721906508641075;0.22313008368451318;0.0499261097176271;149.0;0.25288997339354075;0.22653736005446512;0.05145835302291536;152.0;0.2516697507729074;0.22837938322531193;0.05228810576669513;155.0;0.2500153844262525;0.22862682316916122;0.052397083215892155;152.0;0.2497094413149567;0.23071375834042077;0.05335734916205555;154.0;0.25097179858695046;0.22822026958958927;0.05223031843230483;147.0;0.2561163710299048;0.2304095955386906;0.05323455604858789;148.0;0.2614007853880115;0.21820079425786065;0.04774613191913799;147.0;0.2508494797789231
0.2535161419690022;0.06447394864660061;167.0;0.2958058384735041;12.0;0.25752865818024556;0.06652258674293521;165.0;0.29894040689016116;0.2557991504463231;0.06564016295316286;159.0;0.2941640372254687;0.2750855292694416;0.07591565326859828;152.0;0.2986591100088889;0.3090728889724501;0.09583776000374795;148.0;0.31329834346280666;0.28369592987963976;0.08074618232820352;147.0;0.3027797501063628;0.23766192394413133;0.056666830610725506;148.0;0.2833093595434908;0.21323392170373953;0.04561152101617923;163.0;0.2789035190568687;0.2051425360502768;0.04220439243655244;153.0;0.26785173592124983;0.2068496474092481;0.04291590678274482;158.0;0.26985039067925704;0.20145845654897013;0.040714985113438226;158.0;0.27072819193190195;0.20017659855983871;0.040195411742683616;158.0;0.2733812486269313;0.20125079028774473;0.04062810673185341;157.0;0.27517946170027086;0.2063845380913079;0.0427261775808461;156.0;0.2786796718748465;0.2074080628426091;0.0431483512596706;163.0;0.2754067769333781;0.20093076039204957;0.04049090479063314;151.0;0.2649432771486671;0.27973792318061313;0.07844894868908932;153.0;0.2852094890865018;0.31703434915577233;0.10074370594242467;146.0;0.29887951579251404;0.3140275536082183;0.09883928183151047;141.0;0.29976042904370337;0.29497298762184754;0.08720698643683593;150.0;0.284623236013488;0.29585777227295373;0.08772685341983472;154.0;0.28002760223961143;0.2961240609701437;0.08790613014548387;157.0;0.28012077941790575;0.27242643052253707;0.0743994295895366;156.0;0.2717174313587418;0.25226755001390144;0.06380202144197067;153.0;0.2761156968467402;0.20854350018438034;0.043591557417761315;155.0;0.2578610803715903;0.21277796816416925;0.045369196703942356;156.0;0.2573296422347754;0.21597335905313447;0.04673656515521201;154.0;0.2560695036590033;0.2215266185384186;0.04917436348069368;152.0;0.25598290932214623;0.2266663077648282;0.051493140727036514;151.0;0.256404452540675;0.22707611708686637;0.05170068474282277;156.0;0.2619428590075613;0.22500844313181154;0.05076359809008408;158.0;0.2649840275372923;0.2040349697489718;0.04172305517867154;155.0;0.25601440197274655
0.23919543856649114;0.05740147902199661;165.0;0.2908266347246016;12.0;0.2429502143183846;0.05921785897396058;167.0;0.29837421025835115;0.2449827471658002;0.06021167776007571;160.0;0.2956149381546116;0.2674005083449822;0.07173646419107485;152.0;0.2938844621745536;0.3046471121590071;0.09311140890011277;151.0;0.3080438231834289;0.2834367382750931;0.08059244685550201;152.0;0.2992486429092291;0.2338219198541587;0.0548438988710229;150.0;0.2819763686351377;0.20639624834435277;0.042738276237885495;164.0;0.2773593852208597;0.18509211889035587;0.03437067701629365;163.0;0.2654898695997786;0.18828786623420216;0.03556813424950114;173.0;0.2669215504924757;0.19027922457049048;0.036324216664523915;169.0;0.27027981288658204;0.19463190654290874;0.038001101059945475;169.0;0.27588624540070306;0.19471788220986086;0.03803721483596999;164.0;0.27747925583753985;0.1968242830444347;0.03886636616776526;152.0;0.2819313126327428;0.19399035515650206;0.03775457652719278;157.0;0.27638526271672437;0.18009382726850567;0.03253983085634873;160.0;0.26067426621840106;0.22276458497790927;0.04978603431816877;164.0;0.2699451098658945;0.25713896420185756;0.06633697758433726;162.0;0.2841318328317805;0.2720887619842207;0.07427418662874839;155.0;0.2873968201879135;0.2637876664224184;0.06981190493810405;164.0;0.2714137227604121;0.2658881210556307;0.07092791350206887;165.0;0.2657717724960607;0.26059491745742164;0.06813205390193974;162.0;0.26287208859882993;0.23964015771168315;0.057615718943147466;160.0;0.2543673922449214;0.19922587598595945;0.0398206329475443;166.0;0.25766678841700913;0.17653165373811122;0.031264636034858344;161.0;0.24125536591864538;0.174926578922975;0.030698562803660238;160.0;0.23980996008827232;0.17520507850863404;0.030791848377437477;157.0;0.24033016887741507;0.1782764210725954;0.0318803852983565;159.0;0.24122195483261513;0.1823796627104645;0.03336724779925583;162.0;0.2408065572840014;0.18834854411860444;0.035585720604448624;167.0;0.24810829790182845;0.18928271929370905;0.03594037037779368;171.0;0.2523479682655708;0.1760438496033965;0.03109258716821339;163.0;0.24037356290117548
0.2610902339471762;0.0683890232321816;157.0;0.2963282094692759;12.0;0.26390872388859743;0.06987539690901237;158.0;0.30228563908414957;0.2518006243420892;0.06360736011584454;159.0;0.29367314238587805;0.26272980731412227;0.06924710504345363;168.0;0.2827914540685113;0.3028584459885351;0.09201952687520935;166.0;0.29482997389456367;0.2883904739009952;0.08343729598175358;164.0;0.289092213641353;0.23316935487090704;0.054541545308320886;162.0;0.2716403347390529;0.2105502317688933;0.04447270737574671;154.0;0.28192339667648003;0.18973390222678926;0.03611108728719097;159.0;0.2679414020186554;0.19900171071589695;0.03972733439004477;162.0;0.2692018322482456;0.2047061377376798;0.04203904723008959;156.0;0.27177842348368425;0.20587330319223165;0.04252146647682591;156.0;0.27375915371575604;0.19820342294215637;0.03941316776785239;152.0;0.2739987828703604;0.1971478272450458;0.03899321157575074;147.0;0.27865822970777365;0.19552468902783907;0.03835427816432593;149.0;0.27522067833105235;0.18091050809776266;0.03283271333111914;162.0;0.2637114901081397;0.22575032809535495;0.05108815161258426;168.0;0.2675216422029819;0.2581688141860829;0.06681139499813438;169.0;0.284270122485796;0.265349784299896;0.07060969050247524;169.0;0.28557629903344234;0.25001760905581866;0.06268495920247463;167.0;0.25931828362151205;0.2556028450064009;0.06552149197003938;163.0;0.25047654133864894;0.2549069975343184;0.06517335493399297;162.0;0.25147300536639133;0.2398281829299182;0.05768305606139917;164.0;0.24643001242717233;0.20245113041222806;0.04107920932313303;167.0;0.25373032713984933;0.20092722016159917;0.04048082002976134;160.0;0.24172207824656888;0.20297833950896646;0.04131083450794839;159.0;0.24080638920124403;0.20463334353277715;0.041990530732791076;158.0;0.24223318312435146;0.20309751532494139;0.04134867258158202;164.0;0.24383913156886233;0.20077657163360374;0.04041069465887597;171.0;0.24337056108903996;0.19965573064401018;0.03997534582721977;170.0;0.24859078510323512;0.19506204678295566;0.038156069324939194;170.0;0.2508098395210476;0.19882872291252987;0.03963357064492469;164.0;0.2412179886869396
0.2641045074208717;0.06997906452288301;150.0;0.30197088254551513;12.0;0.2697512117139632;0.07300281609819965;147.0;0.3054139579690578;0.2551220252851009;0.06529984815901572;144.0;0.2905405847723634;0.2570758677143625;0.06630150459393641;158.0;0.27682843520698136;0.284744209529476;0.08133803694182877;155.0;0.28380218326486484;0.2720405517324606;0.07424077679120333;154.0;0.27818679056797213;0.23081649528709156;0.05343977066320725;154.0;0.26302518774594424;0.21332710700413093;0.04565571969118862;142.0;0.2825940037961499;0.2009903065201955;0.040529429675625984;144.0;0.26519259036962467;0.20468457531249992;0.042032840370959515;144.0;0.26639165134662;0.2078422888504091;0.043339500942172614;140.0;0.26974856319422746;0.20831660174715433;0.043535865907423255;139.0;0.271734772655403;0.20385967555101012;0.04169448625362885;140.0;0.2726526667382586;0.20424344145263335;0.04185148042595054;143.0;0.27617103608537;0.20365582517294936;0.04161129351383506;148.0;0.27627038833967377;0.19629397835009033;0.038656980163753824;146.0;0.26353699724963475;0.20155178124223302;0.04075512667204985;154.0;0.24743190002713256;0.2266153946101175;0.05151843125467528;157.0;0.260527173010778;0.23086900598681692;0.053464949984514246;165.0;0.2636956108844444;0.22348456245020792;0.05009586686998534;164.0;0.2475796509124618;0.2271708793439516;0.05176197991702716;168.0;0.24113720889590406;0.22677121909508802;0.051580315138419285;167.0;0.24485726869408425;0.215544004057282;0.04660178646605815;170.0;0.2407979816948906;0.18658007756363137;0.034923716930199994;148.0;0.23970593281987174;0.18934572531362992;0.035962257820103226;154.0;0.23316040084416842;0.19238118463262557;0.03712458303687922;153.0;0.23262716295543745;0.1951432280599599;0.03819498830237884;151.0;0.23426389918942625;0.1975934685856138;0.039153372532433915;151.0;0.23775202007948606;0.1931107561043498;0.037403399689863524;158.0;0.23581291009447122;0.18744266841664514;0.03524700168675195;159.0;0.23908632552550574;0.1780292234555927;0.03179752025488923;158.0;0.2375481793410548;0.18773136431228032;0.03535329949826385;155.0;0.2329665723002493
0.1781720756785474;0.031846374494177536;142.0;0.2234498742006414;12.0;0.18298546766904042;0.033588384776722914;147.0;0.22577998884096318;0.18161861945047944;0.03309047331646646;145.0;0.21756963919107464;0.18804401311708108;0.03547598933628669;159.0;0.21150830603331838;0.1962932246315726;0.03865672687422544;160.0;0.2144078344288787;0.18746842137024852;0.035258247244248066;162.0;0.20928766193762433;0.17225752229671187;0.029768798644684076;160.0;0.20054846905897583;0.15342321337871007;0.023612596885681916;140.0;0.20985088968032653;0.1519560820856377;0.023166061671533542;150.0;0.19768941894801775;0.15134104287506794;0.022978590537943024;147.0;0.19875219824522095;0.15079747186856882;0.022814189688908585;137.0;0.2018605122757179;0.150655346303145;0.022770333165877385;149.0;0.20424915563228627;0.14956128908260777;0.02244163486209025;147.0;0.2043525597642309;0.14848208347446373;0.022118622568831955;135.0;0.20517406103198113;0.14769674644833605;0.02188543920132981;142.0;0.2063529936195639;0.15118935001060133;0.0229327468158076;157.0;0.19661459509241233;0.11127546473828988;0.01241876072762404;151.0;0.1688380904969078;0.12322273070586028;0.01523000489435036;151.0;0.17512384112855994;0.12820397622749893;0.016489910045726464;160.0;0.178246404703651;0.13565763496958966;0.01846060881065255;164.0;0.1760643580445954;0.14219055197577887;0.0202810244233347;173.0;0.17499180783275703;0.14465444513246603;0.020988189886036582;168.0;0.17771227324095315;0.13481422607789176;0.018232230471407308;168.0;0.17334527898628097;0.10871594391110859;0.011854327872376945;150.0;0.16607486023636903;0.10611202324599445;0.01129652134859235;151.0;0.16029926173263864;0.10658484662003669;0.011397351908259131;144.0;0.15982949555965595;0.10817464794751143;0.011739911035264805;139.0;0.1615186389696481;0.11338381160130599;0.012897822681886028;138.0;0.1642939254039038;0.10907643376009185;0.011936545572583782;148.0;0.1615983384188356;0.10512196207480007;0.011086518783961585;167.0;0.16464205710900798;0.1020257590608197;0.010442523837402466;160.0;0.16487845754028066;0.1058918981350912;0.011249304142521772;152.0;0.1602951904954137
0.12067690156878905;0.01460935933361115;130.0;0.14138327570579348;12.0;0.11932816277864623;0.014284158397604997;138.0;0.14163739757554694;0.11657073453689741;0.013629843593464613;140.0;0.13799962549077743;0.12164583142539805;0.014829525245002194;156.0;0.13895105586386308;0.125807631601012;0.015857091293601147;164.0;0.14260639191878266;0.1188067366600842;0.014145873458304831;167.0;0.1379733654418955;0.1093559866419754;0.011986511443200678;158.0;0.13217212194970074;0.10158922824009416;0.010354222237266557;130.0;0.12928558803788437;0.09309700814767465;0.008691803039932791;154.0;0.12371744116956042;0.09370754682094978;0.00880848103893427;150.0;0.12446999089450303;0.09445808523482647;0.008951050406293178;141.0;0.12450800674326619;0.09578502538173599;0.009204238947090842;152.0;0.124069887858894;0.09204478506857329;0.008499934698538134;143.0;0.12460334453703623;0.08812957075582897;0.007792203398856609;134.0;0.1262404952016519;0.08991516848275949;0.008110549277093749;137.0;0.12543224140482834;0.08956423706926987;0.008043060993015067;159.0;0.12202108313984013;0.021398564924639398;0.00045938288946077173;149.0;0.06481647086616478;0.02645918383943577;0.0007014512300190602;141.0;0.06713313932401509;0.03292373072600385;0.0010840922022614275;141.0;0.07097218656540896;0.03682295428135161;0.0013577989690199271;148.0;0.07285979667118976;0.03967681558946632;0.0015780690691358289;144.0;0.07755070189554669;0.036787014387610534;0.0013573444304229873;144.0;0.07613455372400181;0.031530195093527925;0.0009963364206511931;145.0;0.07279070923052514;0.01932835637023353;0.00037480492291993504;148.0;0.06372883370982993;0.0269395858430311;0.0007257670145970639;144.0;0.0657833531204527;0.02738005998155928;0.0007497166376362851;142.0;0.064716962884048;0.02659129479278257;0.0007076880302194126;135.0;0.06499409750560754;0.024896790255232622;0.0006211322798837803;133.0;0.06435433088925399;0.01816042618222385;0.00033081567493001773;146.0;0.06144892943931397;0.015503903413010734;0.00024064614391088298;159.0;0.06238700411878363;0.01659249140905854;0.0002755439964621538;144.0;0.06398503613338129;0.025283739561352526;0.0006407640784073076;149.0;0.06565336029472492
0.1894974169203908;0.03601326929439018;144.0;0.21645540250761963;12.0;0.1989617509806735;0.03970160219410879;143.0;0.22019231334994713;0.19057279513948117;0.03643237560447077;145.0;0.20967424064386098;0.19572514877984346;0.03843256659035477;144.0;0.20641818926197053;0.2037478179957192;0.04164909678074791;152.0;0.2096650263609928;0.18696296343690597;0.03506929256055317;153.0;0.20073725763519606;0.16789602319363392;0.028281329584812165;147.0;0.1922737082735555;0.15281384796647202;0.023426871291424484;138.0;0.19723880489527457;0.12891327996144122;0.01667282073913561;147.0;0.18364005935077377;0.13115043416614075;0.017256070648462848;148.0;0.18480140593789585;0.1355568607772511;0.018434942037590028;149.0;0.18735499964787608;0.14046187696218398;0.019792521042693842;150.0;0.18983589604184586;0.1384546897223627;0.01923099615173718;148.0;0.1911620591335916;0.13629874783486004;0.018638153452584322;143.0;0.19549855148701903;0.13876293191561748;0.019317614548775966;148.0;0.1949295398861658;0.12726623069604923;0.016249779480883735;150.0;0.18178024143557045;0.025643196816033005;0.0006597056276542764;144.0;0.08357768711614225;0.027905764688353638;0.0007812764653329372;138.0;0.08416654046732264;0.03310423806548628;0.001099218348921538;129.0;0.088016374162192;0.039921256265846555;0.001598184467369824;130.0;0.0915201243587493;0.0474085389442073;0.002254380706824851;116.0;0.09892332460037541;0.046514980608639206;0.0021705315215958068;121.0;0.10046693437857133;0.04079726780245292;0.0016699754713691663;125.0;0.09559496390712764;0.025354600829597607;0.0006449551430613102;142.0;0.08270205331178274;0.030136677919197295;0.0009108356554367294;146.0;0.08338626992778145;0.029434611406398067;0.00086914543865697;146.0;0.08263852468585119;0.029774194864429875;0.0008894116245397194;148.0;0.08179378476854718;0.028478357998300195;0.0008136020491987303;140.0;0.08119422580339336;0.026148563650041576;0.0006857548778384573;147.0;0.08055196839401019;0.02378534995999621;0.0005675186383397765;143.0;0.08052833307675199;0.023809951889375684;0.0005687762100453788;135.0;0.08071353887950261;0.02973115516154358;0.000886721949105919;148.0;0.08315151770777664
0.21582196317881144;0.046721139627179366;168.0;0.2620870097733919;12.0;0.21837160767092556;0.04783290767564062;160.0;0.26368469594523947;0.1959824298635482;0.03853032806587821;159.0;0.25028412016971857;0.1971183142396034;0.0389832815752183;149.0;0.24393728187195576;0.20576307017364903;0.042477237538548554;154.0;0.24672410232301994;0.18955403040653282;0.03604859201906974;152.0;0.2391553310457534;0.16996148495387592;0.028981768481129953;152.0;0.2291430593385407;0.16699617989558224;0.027973531638500686;150.0;0.23703100720484796;0.13526277146224938;0.01835516865508686;149.0;0.22320921701839297;0.13677767950795766;0.018769588335459407;150.0;0.22356572596144153;0.1423424399122768;0.02032766677148056;149.0;0.22712244807155288;0.14819560860689993;0.022031621589569613;152.0;0.22893685742132908;0.15069643648574788;0.022776258866011673;157.0;0.22581118307887693;0.15479750180248958;0.02403336685329193;154.0;0.22907515522477115;0.15722857177136992;0.02479111198115092;158.0;0.23412664446475961;0.13554295438579617;0.018431621435262738;151.0;0.22132653148449719;0.10058609426715506;0.010147490641554274;146.0;0.15808055670691637;0.11127433473201587;0.01241874128964835;148.0;0.1632299111539155;0.11665340629311452;0.013647175001613443;144.0;0.1658030738351962;0.11783960194327646;0.013926555288773967;133.0;0.1645302573181335;0.12438307257228115;0.015517599981812015;124.0;0.16466320794357592;0.1221813003956373;0.014972318694715053;127.0;0.1659026601769001;0.11134598303942546;0.012436080039465112;126.0;0.16157391429262696;0.0909992572135766;0.008305958226794332;148.0;0.15221714874979556;0.09769942523969297;0.00956528635906074;146.0;0.15367821422236244;0.09650974321164651;0.009333085476329193;146.0;0.1518839273279645;0.09508669943435348;0.009061358243379468;151.0;0.1501568212364008;0.09267192270766599;0.008606785391752537;151.0;0.14983143604468616;0.08823814115323786;0.007805128963957038;152.0;0.1496160148162364;0.08966464523447547;0.008062053632337559;157.0;0.15221679111830747;0.09061828491626843;0.008235839661820286;156.0;0.15169071525315106;0.09354665208536378;0.008772312241625349;145.0;0.15145716408718
0.23713115842449534;0.05638682709752707;162.0;0.27949277031008807;12.0;0.22960568145931118;0.05286577650792939;152.0;0.2808234416895571;0.19849014529918743;0.03951431914470053;154.0;0.2684055965685272;0.19369046152500155;0.037628285713095115;152.0;0.25658319953317155;0.2012433482716157;0.040623114284144224;156.0;0.2624098153864795;0.18734283917888078;0.03521080011839922;154.0;0.2579115683691583;0.16993135559955827;0.028971127299907636;160.0;0.24852874856776652;0.18576163664497203;0.034617898860212305;154.0;0.2565545693315488;0.16551923332126064;0.027469240993180995;158.0;0.24807334469496803;0.16625785189931352;0.027712384459955067;159.0;0.24889920101027282;0.16990140068889703;0.028948546291189686;156.0;0.25213528725170004;0.1678499777336033;0.028255122058900142;154.0;0.251188051702157;0.1606759177492256;0.02589039240067832;152.0;0.24405056895142488;0.16292782555693136;0.02662889082448815;155.0;0.24429550489774782;0.1701805448092798;0.029055171489941606;157.0;0.2506010107395373;0.16210671958180134;0.02635098514933177;155.0;0.24652269192458917;0.1532094012359377;0.023549470538246402;166.0;0.21429377157102197;0.1728798487194895;0.02998345158127601;167.0;0.22417766039051745;0.17355265464513694;0.030218543739453717;169.0;0.21769685434842181;0.16733466901846458;0.02808966113873034;158.0;0.2098644103593221;0.17415153988706938;0.030418092589048172;153.0;0.20732794689965;0.17324500011179808;0.03010294499650871;158.0;0.20781689748520127;0.15927838531712046;0.025444795718837093;155.0;0.2024899838966487;0.137502405634705;0.018968950766825976;164.0;0.20374117437075528;0.13714880344388686;0.01886712798460745;153.0;0.20111129687604887;0.1383227482827999;0.019194279556618135;158.0;0.19942884294541585;0.13851360075693087;0.019246880491242447;161.0;0.1991810245879397;0.13804374579373305;0.019118553890777424;168.0;0.2013341520430149;0.13764321453529318;0.019007271237162424;164.0;0.20201249725307605;0.13767753267016766;0.019017584025666973;171.0;0.20390194862412783;0.13478188389121518;0.01822598106373003;168.0;0.20117811053115678;0.13133816375618174;0.0173000307215099;154.0;0.19646013207742755
0.29202466549250417;0.08555091733116384;147.0;0.30032410582399605;12.0;0.29112910809638926;0.08501970631305422;147.0;0.30400802442508235;0.25833964331697856;0.0669476929574188;153.0;0.2899257720900822;0.2433279651175205;0.05939555759363935;153.0;0.27272021034120847;0.2544312271136062;0.06493295544264675;154.0;0.27901705034245067;0.23726687555454629;0.056469349835714285;152.0;0.2728777902985241;0.206517929710625;0.04278743384333112;157.0;0.26050100138098814;0.23475563301605903;0.0552877450903193;155.0;0.28226584976210595;0.20766814844445203;0.04326697036493645;151.0;0.26243604210880306;0.2100667540454295;0.04427130592754561;154.0;0.2647782335655582;0.21373492670248123;0.045826794541168045;155.0;0.2700098502657368;0.2161062604473875;0.04684719960288777;156.0;0.2733302381065009;0.21117181619873246;0.044725713306224525;147.0;0.2715266183238779;0.20562226714881862;0.04240768780716027;150.0;0.2712215894840913;0.21040038537552574;0.04440826851558195;156.0;0.27369005348362707;0.1981392599359191;0.03938748154404622;154.0;0.26046346659510067;0.18203441711240054;0.03323540500416235;169.0;0.24846450242514392;0.20864100444168646;0.043647028191228544;166.0;0.2641420733538626;0.19547626897332188;0.03832301168500773;166.0;0.2546455488991301;0.17638926385419484;0.03121383936023414;163.0;0.2357094447654043;0.18012682292472834;0.032551590349133235;155.0;0.22853232656478098;0.18216737005160763;0.03329247718687589;159.0;0.23007072598996867;0.16972851220620142;0.028901836447743277;158.0;0.22395431801855956;0.164576061191653;0.027163081127084786;164.0;0.23601459967957122;0.14668168080529667;0.021578405830981025;155.0;0.21771496403661067;0.14857137598453454;0.02214020056703027;157.0;0.2171685636097778;0.14856779854836533;0.02213672883849634;158.0;0.21825486512577738;0.15002254149061595;0.0225776748240756;159.0;0.22255701376476322;0.15207140626832497;0.023199002559915402;152.0;0.22430282369160912;0.1491588933406657;0.022321240084456167;152.0;0.22482939350575223;0.14768890120493208;0.021882548167346184;157.0;0.22460767049693411;0.1418846764427305;0.02019100517870703;154.0;0.21433091010608415
0.2989255367709333;0.08965119155718118;135.0;0.31223391413950485;12.0;0.30794885997352806;0.09514436767836516;144.0;0.3122818396510091;0.2953997255861274;0.08754626808759365;141.0;0.29946804007367994;0.2988341907776231;0.089593902452662;143.0;0.29056373026451565;0.32814075364155415;0.10801919196076215;143.0;0.3015020695484881;0.30502526905793836;0.09332951871347489;143.0;0.294391413229509;0.2504706293474199;0.06292693278991689;143.0;0.27557535208821;0.24679999022364016;0.06110981848333799;136.0;0.2918651796567526;0.2085881146445894;0.043629917002521015;145.0;0.2686874450794644;0.21217436234083897;0.04514114604539861;147.0;0.26982520503378044;0.21756541685274944;0.04746900927481981;147.0;0.27373253826465493;0.22679737735044844;0.05159466610877894;155.0;0.27866067273069506;0.2320260181918368;0.05400396073543655;151.0;0.28067138727303875;0.22749565488764073;0.05191263147176239;149.0;0.2831538975769894;0.2261066911128978;0.0512907501396379;152.0;0.2843705698763816;0.2002190890711339;0.04019918604953242;148.0;0.2650825358378892;0.19942054697223296;0.03988908936582684;173.0;0.27209595374923234;0.2307321285765186;0.05339999583115854;173.0;0.2894981712832058;0.22477350842715832;0.050658744591338394;173.0;0.2874477856650286;0.19452048099721272;0.037938223085175304;177.0;0.2646612746385105;0.1916965440474037;0.03684668333210544;167.0;0.25412135781083867;0.19764137893052366;0.03917707297741231;157.0;0.25605756376357625;0.18716263880682868;0.03512770310336178;159.0;0.24961686911820893;0.1830633619464611;0.033609978370308394;174.0;0.26164598367877745;0.1595487471416085;0.02553504753733991;167.0;0.23722917836468593;0.1585911494426715;0.025228948599079974;169.0;0.23643948075018506;0.15789102342429592;0.025002740809287237;166.0;0.23795378040177642;0.15910356496128908;0.025390838953704257;164.0;0.2403854058592848;0.1581374343242366;0.025080686697538834;170.0;0.24154620659714127;0.1579295262960801;0.02501620828501097;168.0;0.24454557350356584;0.1587328701868842;0.02527631929335042;172.0;0.2471912996417979;0.15524581738771565;0.02417294721913578;164.0;0.2345957614486845
0.2891667910182654;0.0838547584977994;138.0;0.3111174176252032;12.0;0.30685737778103767;0.09444577176924451;140.0;0.3128521361631069;0.3117954947456328;0.09751158865955639;138.0;0.3054773543244578;0.3209022871086162;0.1033026402638432;138.0;0.29739086168941203;0.34860077532598593;0.12190460512869426;140.0;0.30675984975388115;0.32364417862642775;0.10507725369041016;141.0;0.3004562139819041;0.26784349662183826;0.07195706853547325;142.0;0.2816345713183372;0.24296215439011454;0.05920246431906327;136.0;0.28737241476857966;0.19498346728144086;0.03812732800678402;151.0;0.26559274343851763;0.19712560254352554;0.03896486528136095;148.0;0.2659961770080867;0.20198772103740087;0.04091222779222668;150.0;0.2687164606136617;0.20994572212961393;0.04421000150653098;158.0;0.2714211754167327;0.2168827500854675;0.047187529024294905;158.0;0.2722910946685422;0.21948260992308513;0.04832273004556815;156.0;0.27779184923906264;0.21999725644641294;0.048547652118717026;152.0;0.27950326555140714;0.19514440315911377;0.038189709130918216;154.0;0.2636526392666894;0.1843595612491496;0.03409240311944195;161.0;0.26163614614330755;0.2118765599840987;0.04502839364337936;166.0;0.2784166087076748;0.21739042556048274;0.04739598674007768;167.0;0.28017986486595664;0.19676135931939537;0.03884113915290544;161.0;0.26241672042880243;0.1983093638025063;0.039455216114138755;159.0;0.2582971017988742;0.20717091000202553;0.043060078632207344;157.0;0.2638754725828763;0.19741252960529918;0.03909908871918707;156.0;0.2583113553653726;0.1716269615167798;0.02954378448072329;162.0;0.25531818228349323;0.16458385877056883;0.027174839899218053;168.0;0.24627681818611188;0.1594758077199175;0.025514384105857678;169.0;0.24181244365805407;0.15471016413088687;0.02401229242701354;167.0;0.23812285612488657;0.15310963060764232;0.02351866102757379;167.0;0.23820059800671348;0.15321437162476967;0.02355117457154493;173.0;0.24068841436619914;0.1546809267811922;0.02400410594000573;168.0;0.24231626318271324;0.15482909555139407;0.02405039526502601;162.0;0.24288222609633553;0.16119627422941213;0.026067492940396696;165.0;0.2443223343521684
0.3043451733970103;0.0928789933668849;150.0;0.3100210210289543;12.0;0.3186670621419608;0.10183417317567585;150.0;0.3120876331861425;0.30960163083192116;0.09615214606919588;155.0;0.30477507807773435;0.3023951537818388;0.09172591516830954;148.0;0.29257339176945496;0.3103947297045802;0.09664580457767837;154.0;0.2940499780495498;0.2925956525437237;0.08588539192153817;154.0;0.2887186917447387;0.2616890458667445;0.06869365086596822;155.0;0.27592968581799354;0.24776510402232468;0.06156769051199765;149.0;0.2891384467803316;0.2234875727967333;0.050066673864631615;147.0;0.26602984765041643;0.223687940154272;0.050163297508454094;143.0;0.2663259434135419;0.22255119284453934;0.04965144457243014;145.0;0.26729414501102844;0.22264711156913364;0.04969094900579698;151.0;0.2695958942530895;0.2199985915427947;0.04852384396312962;157.0;0.27161175362539974;0.21555491162239382;0.046595396017892504;155.0;0.2754268443952281;0.21849683282327254;0.04786691745424963;154.0;0.27829707142470816;0.22085503333943923;0.04890789354761578;153.0;0.26585532212446183;0.1910948346208821;0.03663860498331578;149.0;0.2590350412064425;0.21926977696168842;0.04823847194115329;156.0;0.27556159580544687;0.20968832427990047;0.04411432392044874;157.0;0.2737704501973202;0.19357616627714674;0.03759120247135644;156.0;0.2568018726987247;0.2015144219784606;0.04073994750467046;160.0;0.2571453370350567;0.20593877390070023;0.04254902129101105;170.0;0.26324973631403403;0.19465627216271916;0.038014724584023545;164.0;0.2590137194363397;0.172033587976351;0.029693056691836733;151.0;0.2517370332932589;0.17070939171008037;0.029236999943543195;160.0;0.24719982398530943;0.1658128256753715;0.027583490069219268;156.0;0.24265938846311103;0.15814106503744044;0.025089532696572058;155.0;0.23611368647920333;0.15409190112251023;0.02382182086375912;160.0;0.2351513874106535;0.15566421344350098;0.0243076837948803;163.0;0.2373805049163275;0.15282159420020586;0.023429568470552848;153.0;0.2378551629459113;0.1541388552193037;0.02383729519937322;141.0;0.23890222664511757;0.16763703032630034;0.02819382377420343;160.0;0.24601102178773726
0.2696202460466796;0.0729274247704921;152.0;0.2905796035724877;12.0;0.28802473036739484;0.0832290089907566;152.0;0.29470094367663513;0.2916808223410712;0.08534348487321958;156.0;0.29015904252016456;0.2966732402288894;0.08828450691914685;156.0;0.28919426324495506;0.30780098252136256;0.09503351430022372;164.0;0.2934310500121713;0.29019132393181046;0.08446565990730028;164.0;0.28772443491497246;0.2593244433199111;0.06744752504150017;164.0;0.2735725072116315;0.22204031094122453;0.049460920099058905;152.0;0.27347971209218597;0.22622915386883427;0.05133715143149562;158.0;0.25893439083797604;0.2254392122060599;0.05097409009179808;157.0;0.2569578812039973;0.22053641239606533;0.048776494918832736;157.0;0.25485202666680784;0.21504149451410057;0.04638584041665241;159.0;0.25575411124420916;0.20543446595975798;0.04233739238476664;162.0;0.2601453168861597;0.1968579262727413;0.038878979676309856;155.0;0.2650076086558437;0.1976106869884784;0.0391772418046232;155.0;0.26436613366057593;0.22261867405428376;0.04971211392244122;160.0;0.258851375886725;0.19381145173465614;0.037679511656391794;165.0;0.2634239612828534;0.2255817044768018;0.051038314146446884;168.0;0.27775441317087246;0.22050913902965077;0.04877122992385187;166.0;0.2741456814745796;0.2057809585385142;0.04245732130179958;165.0;0.2599930017276996;0.2146801590179862;0.04620956791691395;167.0;0.2586121214455791;0.22022008133443904;0.04862305672111198;170.0;0.26224015857310806;0.20520698518241484;0.04222036256061198;173.0;0.2554764281672585;0.17772156586664314;0.03168546408914102;172.0;0.25635958948037413;0.17346949088973299;0.030189558129270475;156.0;0.24445120683539584;0.1727058106304907;0.02992444531966776;153.0;0.24425220094795758;0.1684101924131195;0.028454260278584338;149.0;0.2437435165811014;0.1666742930784548;0.02787078624032455;159.0;0.24397690793429785;0.16685518793288168;0.027929698516784354;169.0;0.2444301630937789;0.16139476170447722;0.026129297852656122;168.0;0.24426110012468616;0.15735137532620666;0.024834329343197188;160.0;0.24284240569126758;0.16849401257254243;0.028483043030377388;157.0;0.24183549541902857
0.16705696140809817;0.027955471817022085;161.0;0.20162604856604174;12.0;0.18723522574183227;0.03513875047196545;165.0;0.20901954240242449;0.20390400159560948;0.04167761836542982;164.0;0.20988624029674202;0.21317163201362954;0.04554823446761103;152.0;0.21395729527169455;0.22511030987362202;0.05081378003899083;148.0;0.21891634227527107;0.2103390675615055;0.04436148126231897;146.0;0.21363998331152276;0.1796392044872844;0.0323403456382656;149.0;0.20003539243123933;0.14319001882073715;0.020556508704475784;152.0;0.18864104202527285;0.14307697289157362;0.020500073422588885;152.0;0.18080009442352157;0.1433348660502417;0.020573142448511654;141.0;0.17966115897661117;0.14007674048565427;0.01963234461535895;142.0;0.17838426453213121;0.1365641048098752;0.018669293257985217;143.0;0.17824196867592948;0.13138229148042108;0.01729011189633582;143.0;0.18252506150298492;0.13071428952847536;0.01712820924298361;143.0;0.1883403302618661;0.1296324277867803;0.01684297766383154;150.0;0.18562852350744313;0.14370329369574303;0.0206880673746378;141.0;0.18143284797376827;0.12091515468660081;0.014665062885942467;160.0;0.18512038764992877;0.14336216203293364;0.02061857629522633;158.0;0.19445259662870848;0.15175904116365127;0.023099026356543734;152.0;0.19315606947524974;0.14895525670802026;0.02225332229012167;143.0;0.18742125509620383;0.1579098079991497;0.024990479579291767;142.0;0.18699058646625294;0.1654855084643962;0.027452850125325556;150.0;0.18971177989021043;0.1530064770031495;0.023460901670069145;168.0;0.18337941364856286;0.11710099741664665;0.013753512461744319;159.0;0.18184477752271055;0.11984021766135587;0.014398515317137253;136.0;0.1743596166724546;0.1203572823745991;0.01452603352106529;141.0;0.17519008486848767;0.1177263550367762;0.013899592203935314;143.0;0.17663919277243337;0.11756133194202681;0.013864198447795793;153.0;0.17810903829033517;0.11707947138042579;0.013749071833095455;156.0;0.17865189697830888;0.11263011584300801;0.012725003146251804;171.0;0.1766848313736486;0.10562381629520565;0.011190576379617895;172.0;0.17272303184885135;0.11542465684792312;0.013357558398894371;152.0;0.17246670288187266
0.04104252544375679;0.0016898662350803716;153.0;0.08677645316174078;12.0;0.0481804616759303;0.002328929956404256;154.0;0.09148310741718517;0.05233556720434566;0.002747962347304868;157.0;0.09496673871093722;0.0509658337901614;0.002605998277262384;150.0;0.09674466831809667;0.052653580525904166;0.0027812664604710655;146.0;0.10011148620637893;0.04835947394841057;0.002345827693627709;142.0;0.0961192529723135;0.04121041309975331;0.0017035124215209112;140.0;0.0892547632440799;0.03299624616300937;0.001091631397025686;146.0;0.08180596661771468;0.03218010145150939;0.0010383115408015464;148.0;0.0838702972341415;0.0360755081973779;0.001303600581858191;134.0;0.08609101312114174;0.036336992097353825;0.0013221618721928857;131.0;0.08704457538955322;0.035320234895977874;0.0012491659607838873;137.0;0.0858516142766204;0.0330836386598157;0.001095083358147873;142.0;0.08503310223632145;0.03012838186045611;0.0009095835666632204;146.0;0.08190968683819864;0.030948435685514773;0.000959937104553308;147.0;0.08342122731100361;0.032912745335555944;0.0010864353378443887;142.0;0.08396118742188816;0.04322790211527795;0.0018646543983754777;141.0;0.0944990885838789;0.048659683424000344;0.0023639921709524415;139.0;0.09978456978966609;0.0490439571864067;0.0024019850093035325;137.0;0.10039979545872252;0.04902692941121482;0.0023955381849000744;148.0;0.09910817152515987;0.05804392054388706;0.0033555531537144178;146.0;0.10567892759339714;0.06212778487290801;0.003843474867826473;151.0;0.10805033880455199;0.0563903173501486;0.0031567819565830133;165.0;0.10430189423173412;0.03859683144998911;0.0014859658703822688;138.0;0.09142984715563343;0.04509566695607545;0.0020315170155441467;135.0;0.092829781277191;0.04509829367235613;0.0020284475468890922;136.0;0.09278918937063801;0.045074715632129024;0.0020257943261412564;139.0;0.09222793555578644;0.04574194942300767;0.0020903687477681504;146.0;0.0921442965804454;0.04569331128617633;0.0020797760338809213;154.0;0.09104361836199966;0.042674501435976266;0.0018173773195735465;167.0;0.09263125333657732;0.03809882736580312;0.0014485672481806338;163.0;0.09059254216925573;0.044474640584801044;0.00197746996563271;155.0;0.09333782856210433
0.11184799982161218;0.012533730463952326;152.0;0.16488510661979214;12.0;0.10264447576983078;0.01056150461119327;149.0;0.1580501455229913;0.09543638466674476;0.00913699413125546;150.0;0.15219642755473295;0.09160315084659197;0.0084200073672099;153.0;0.1507402650654037;0.09124833563302052;0.008353293636390959;151.0;0.1495117189576609;0.08483016705648476;0.007220487196420456;144.0;0.14433639205362714;0.0778491358871748;0.006080544991004597;147.0;0.13881269440652988;0.09632109234302064;0.009290574324975142;154.0;0.15503939122094706;0.06912621264064314;0.004789838523709539;158.0;0.1373424334238376;0.07212543591876516;0.005215040019805825;158.0;0.13958265080452825;0.07604782496817321;0.005796827436818396;156.0;0.1418220161037134;0.079683064292904;0.006363944669760416;160.0;0.14520438247072556;0.08196579887870425;0.006729979844583766;163.0;0.1472396634648905;0.08832374146991671;0.007810739995709425;170.0;0.15085513918774668;0.09209848846257922;0.008488302761695257;164.0;0.15057463452752057;0.06877997731150196;0.004742089977159826;158.0;0.13463767429607354;0.08885982516576921;0.007921087788329362;143.0;0.15256968059241002;0.10042765104885269;0.010118210178879337;139.0;0.16228699401025493;0.09471151061938059;0.00899735209337449;135.0;0.15857194508530928;0.08230170973638155;0.006790340056240893;143.0;0.14677212610634122;0.08703008488289632;0.007591406210478264;148.0;0.14855654410374164;0.08926869221243651;0.007985163908433459;146.0;0.1501162194900842;0.08248493274534953;0.006818390592385836;149.0;0.14550154390703393;0.0798713615886475;0.006398625785578462;139.0;0.14472067028193591;0.06781444574003424;0.004609497884334229;147.0;0.13762055355915284;0.06863783575161513;0.004723400690037946;146.0;0.13572314424869064;0.06906181759402023;0.004780347244113576;146.0;0.1343353470099648;0.06906310097107088;0.004782202351287632;146.0;0.13491206295000674;0.06980513367946918;0.004886711148553401;156.0;0.13637709400734577;0.06987785038515816;0.0048971008665037955;157.0;0.13979943044070864;0.06939806782530841;0.004830423554909709;152.0;0.1395974910030328;0.06567371532298417;0.00432392758800451;148.0;0.1363106643068013
0.21902706100980002;0.04808798421899475;159.0;0.24027392936435948;12.0;0.20511324145394746;0.042178570374969276;161.0;0.22931682622555294;0.17742833735392285;0.031549188448577466;160.0;0.21367167311267132;0.16473315331372787;0.027213105942970318;151.0;0.20899375826105823;0.16759699569548198;0.028178773335348385;140.0;0.21116170450009134;0.16034471813946147;0.025788730270701405;140.0;0.20760657160188842;0.1495623473825045;0.022428963749947167;146.0;0.2013278135778093;0.17998183122175032;0.032464542815979804;157.0;0.2221589265833408;0.1489979102044022;0.02225443541878499;159.0;0.19993814165536314;0.1515237820748843;0.023011523802022586;160.0;0.2016974443337787;0.14998808148593282;0.022551670800097685;155.0;0.2046052584903468;0.15325095264632094;0.023544981662837743;154.0;0.21098257845139057;0.1587295237299964;0.025259293518218574;158.0;0.21608740414025454;0.16538702094239027;0.027426225535335157;168.0;0.2203231778503124;0.16901109176393903;0.028639262005101026;168.0;0.21681093710044866;0.14669484980636305;0.021572083616257152;152.0;0.19683810026053458;0.11190245848345956;0.012555712087006099;153.0;0.19063600668516875;0.12485089670782948;0.01563112572918157;155.0;0.2005214345787509;0.11778920831990246;0.01391001075696601;153.0;0.19443608747324545;0.10626761220838103;0.011317515281128699;149.0;0.1819394592862511;0.10578814543425803;0.011215617787115967;153.0;0.178236677026878;0.10641099978367755;0.011345956585462783;151.0;0.1778077499199791;0.09764003047070716;0.009548186069116756;157.0;0.1725338530880301;0.0983383574404683;0.009691784292079187;143.0;0.17828595766981825;0.08298479503165282;0.006880326594015538;153.0;0.16280413457361861;0.085506483211728;0.007300681278838093;155.0;0.1622496819861373;0.0846020524868269;0.0071460103013075114;159.0;0.16098158337314739;0.08299687600879996;0.006881803665632933;152.0;0.1609807375914565;0.08425344222420922;0.0071056605914167365;154.0;0.16528286499388814;0.0866783778204552;0.007522534388942621;152.0;0.16862996062575222;0.08866448727692676;0.007872911999672653;149.0;0.16965568603098177;0.08037612028912482;0.006457125666871118;148.0;0.16019354756797405
0.2660158258676554;0.07099173465816361;163.0;0.2682387427538224;12.0;0.26784530216543373;0.07197496206297485;165.0;0.26651846185667777;0.23633930467441017;0.056039034384748325;166.0;0.25262029223223414;0.20890481169659428;0.04378063973608372;158.0;0.24467329086886314;0.20548163551754736;0.04234840070397196;150.0;0.24901832923985925;0.1925524251396576;0.03719386354867973;153.0;0.2430905026950515;0.18047528862702322;0.03267804575615456;155.0;0.2355100330243469;0.21719019851457827;0.0473181308724117;157.0;0.2477537722649571;0.1792055568932849;0.03221875427259925;161.0;0.23164137586308245;0.18417457351866273;0.03402805157961793;158.0;0.23334112682251004;0.18551305909407179;0.03452051317888966;152.0;0.23695980521218138;0.1871369729549711;0.03512509713845754;154.0;0.24102056256696533;0.1876740834536281;0.03533125858075682;162.0;0.24314981856557338;0.19220717745186752;0.03706181547309557;159.0;0.24624061505981606;0.19796922097402433;0.039316044994121536;163.0;0.24464341502667497;0.17568305648710678;0.0309648502860232;158.0;0.22916773494842013;0.1544883398034395;0.02394216062471114;147.0;0.2305627535047897;0.17354688503247628;0.03021207306315558;155.0;0.24377958813695103;0.16618014326154545;0.02768667153180102;163.0;0.23886747004663672;0.1468732817511929;0.021630045389419154;156.0;0.22530620975275534;0.14874190454377512;0.022186590485204938;154.0;0.22414999452398773;0.15453745187360288;0.023947667005726588;153.0;0.22755931195608056;0.14502765587090452;0.021088457021922778;158.0;0.22215899851078186;0.1418528226822785;0.020183054896271625;143.0;0.2197395533925198;0.1186150279858537;0.014096437754640333;147.0;0.2022062421989561;0.12053336017625875;0.014564905766480856;147.0;0.20170693241026066;0.1217245928077817;0.014854859353187384;151.0;0.20180095474171061;0.12419372817573078;0.015465550062847843;146.0;0.2013494820175925;0.12262433252336169;0.015079274674352652;146.0;0.20047229798773736;0.11998339195152803;0.0144366922453526;149.0;0.20099496560025426;0.12343506541108377;0.015278050347768765;151.0;0.20275929312254234;0.117763741269902;0.013897081714356468;146.0;0.19961649206345564
0.26233746290393634;0.06895519274901434;152.0;0.2862324100664203;12.0;0.27274342082687864;0.07455127873658184;156.0;0.2868846616854757;0.24769115842084743;0.061479616891775016;162.0;0.2728641642321347;0.22339313036624667;0.05000805909778477;155.0;0.25750798534929914;0.22185059218072933;0.04934189000961404;149.0;0.255104413190111;0.2045776699196202;0.04194815204525041;144.0;0.2482420310161722;0.1834757985145697;0.033725123941758445;148.0;0.23963150840226377;0.2091042649028206;0.04379615761615628;153.0;0.2597608630743161;0.17549758951289163;0.030833209139896282;154.0;0.23578941511126503;0.177686469999004;0.031622221373624415;152.0;0.2376211512404158;0.18183557773193787;0.033127368920415644;149.0;0.24073707348326379;0.18045958973388795;0.032628768368582986;154.0;0.24111075113952818;0.17204379091194688;0.029645607306463453;159.0;0.24056399497428338;0.1748053557101622;0.03061069080911886;153.0;0.24625144778945746;0.18635439594061554;0.03478554155345682;154.0;0.2507940239062764;0.1695027349289132;0.02876495409851239;154.0;0.23305453485747965;0.19882999060597795;0.03965993369537622;152.0;0.2578278441761414;0.2233072650430071;0.05002911554081922;154.0;0.2714588350479531;0.22119193157673908;0.049084084718708496;152.0;0.2682732749649137;0.19894442688263475;0.039695592268264746;142.0;0.25218225717509246;0.20393954061247083;0.041719349498733266;139.0;0.2535878438950185;0.2164754063091354;0.04700253428737561;143.0;0.2607198938880033;0.2067822524076664;0.04288177452935657;139.0;0.25430824087099774;0.18297126782537812;0.03358367611782061;150.0;0.2483664866796469;0.16061692281926276;0.025852506511216997;134.0;0.23048194196283187;0.16044524528258453;0.025802077032821242;133.0;0.22919581008318857;0.162424456230198;0.02644795587418842;134.0;0.23001658933342592;0.16542936720868728;0.02744085712422547;134.0;0.2307417794408488;0.16426755930446926;0.027058560383023407;132.0;0.22849535366718485;0.1630827447380641;0.026662576629887923;142.0;0.22967347469915922;0.16561419732911958;0.0275065092862938;151.0;0.23302491621271673;0.1598858232773893;0.02562852485849593;133.0;0.22793978279581664
0.2598152157749882;0.0677214246757325;153.0;0.2964978112204767;12.0;0.25251184773659113;0.06396808474848359;157.0;0.2904191328982895;0.2283785441192665;0.052326817981174986;164.0;0.2796075489753394;0.22059194555284792;0.048819816358938534;167.0;0.2691919744633231;0.23320340724277133;0.054561182501555;155.0;0.27024391957213034;0.21728540436676988;0.047367202338691426;151.0;0.26269771103702544;0.18962090506238727;0.03607357662145356;153.0;0.25035380345428043;0.20992762719881436;0.044212231188294746;156.0;0.27154960476601914;0.1842455119481811;0.03405666146361374;162.0;0.24797909838594284;0.18447118398008786;0.03414070018545301;163.0;0.2513653808982286;0.18827979124853367;0.03556338678431141;162.0;0.2557641909154303;0.18886367923257327;0.03578311397342282;162.0;0.25621784926406377;0.18020508718989206;0.03257796386350893;165.0;0.25228357239706234;0.17978728017970266;0.03242910473510511;160.0;0.25206826264688154;0.19164880632198525;0.036848783542534645;158.0;0.25838827652820107;0.1746802318209341;0.030612834379118326;165.0;0.24236904361232825;0.21535647847225164;0.04650554248279487;154.0;0.27238978959548826;0.2459073471348755;0.06065017287263812;159.0;0.28688558514089263;0.24895254725808377;0.06215390176091545;151.0;0.28682356116241814;0.22494712917275203;0.05075042611268936;150.0;0.26608341910766053;0.22250507071631018;0.04966787959124716;143.0;0.2551551293414251;0.22799066505276344;0.05214629041398393;147.0;0.25820036806466895;0.21611244327039544;0.04684913508773731;141.0;0.251213610481198;0.19236001737022373;0.03710603506879158;151.0;0.25951328287554437;0.1741200169712173;0.030397140152995474;145.0;0.24129050108856145;0.17416256707857028;0.03042078551865283;144.0;0.2412145893391337;0.17439474019581566;0.030502603810943225;144.0;0.24217722214671922;0.1733854201583615;0.030146705225946126;141.0;0.24331885624634633;0.17367438219357353;0.03024211741656445;140.0;0.24257533224467306;0.17208863881527575;0.02969151218709655;145.0;0.24171014052030365;0.172978391343534;0.02999825485634806;147.0;0.24478640511598068;0.17293598039614888;0.029987359153630728;147.0;0.23953508409920035
