rms_s1_ch1;var_s1_ch1;zcr_s1_ch1;wl_s1_ch1;rotule;rms_s1_ch2;var_s1_ch2;zcr_s1_ch2;wl_s1_ch2;rms_s1_ch3;var_s1_ch3;zcr_s1_ch3;wl_s1_ch3;rms_s1_ch4;var_s1_ch4;zcr_s1_ch4;wl_s1_ch4;rms_s1_ch5;var_s1_ch5;zcr_s1_ch5;wl_s1_ch5;rms_s1_ch6;var_s1_ch6;zcr_s1_ch6;wl_s1_ch6;rms_s1_ch7;var_s1_ch7;zcr_s1_ch7;wl_s1_ch7;rms_s1_ch8;var_s1_ch8;zcr_s1_ch8;wl_s1_ch8;rms_s1_ch9;var_s1_ch9;zcr_s1_ch9;wl_s1_ch9;rms_s1_ch10;var_s1_ch10;zcr_s1_ch10;wl_s1_ch10;rms_s1_ch11;var_s1_ch11;zcr_s1_ch11;wl_s1_ch11;rms_s1_ch12;var_s1_ch12;zcr_s1_ch12;wl_s1_ch12;rms_s1_ch13;var_s1_ch13;zcr_s1_ch13;wl_s1_ch13;rms_s1_ch14;var_s1_ch14;zcr_s1_ch14;wl_s1_ch14;rms_s1_ch15;var_s1_ch15;zcr_s1_ch15;wl_s1_ch15;rms_s1_ch16;var_s1_ch16;zcr_s1_ch16;wl_s1_ch16;rms_s2_ch1;var_s2_ch1;zcr_s2_ch1;wl_s2_ch1;rms_s2_ch2;var_s2_ch2;zcr_s2_ch2;wl_s2_ch2;rms_s2_ch3;var_s2_ch3;zcr_s2_ch3;wl_s2_ch3;rms_s2_ch4;var_s2_ch4;zcr_s2_ch4;wl_s2_ch4;rms_s2_ch5;var_s2_ch5;zcr_s2_ch5;wl_s2_ch5;rms_s2_ch6;var_s2_ch6;zcr_s2_ch6;wl_s2_ch6;rms_s2_ch7;var_s2_ch7;zcr_s2_ch7;wl_s2_ch7;rms_s2_ch8;var_s2_ch8;zcr_s2_ch8;wl_s2_ch8;rms_s2_ch9;var_s2_ch9;zcr_s2_ch9;wl_s2_ch9;rms_s2_ch10;var_s2_ch10;zcr_s2_ch10;wl_s2_ch10;rms_s2_ch11;var_s2_ch11;zcr_s2_ch11;wl_s2_ch11;rms_s2_ch12;var_s2_ch12;zcr_s2_ch12;wl_s2_ch12;rms_s2_ch13;var_s2_ch13;zcr_s2_ch13;wl_s2_ch13;rms_s2_ch14;var_s2_ch14;zcr_s2_ch14;wl_s2_ch14;rms_s2_ch15;var_s2_ch15;zcr_s2_ch15;wl_s2_ch15;rms_s2_ch16;var_s2_ch16;zcr_s2_ch16;wl_s2_ch16
0.17656904938656975;0.031278177334316135;145.0;0.19788532904096234;12.0;0.15302121894057377;0.02349081175090377;147.0;0.18206382585203967;0.14115191755184317;0.019988203655909836;146.0;0.17877438065042883;0.13377189807769999;0.017952035149841252;144.0;0.17976996285775285;0.12211401287499464;0.014958835829262933;143.0;0.17526673090364817;0.10916171956959493;0.01195339193401966;143.0;0.16869183649608296;0.09961220188158355;0.009953823744624427;146.0;0.16363886558332594;0.18706628466707884;0.03510795661384813;147.0;0.2046925175328568;0.10557660009526608;0.011180516719628452;153.0;0.16129148656949951;0.12930936129251022;0.01676950504677517;153.0;0.1714184729170539;0.14520617752448062;0.021147961619970516;163.0;0.18254216484434016;0.12043663221093792;0.014549734952802571;153.0;0.18376705982686342;0.11434074964945992;0.01311594402838663;157.0;0.1879800539240301;0.11470432172642094;0.013199184229904235;155.0;0.1858941876335899;0.1218659722962892;0.014898732501814324;156.0;0.18435282446441492;0.09347868465879884;0.008764830632959353;152.0;0.15525559354343038;0.046879637940899846;0.002200055082046427;161.0;0.09437852041186666;0.048670814379885075;0.0023703845694024585;153.0;0.09741994609732547;0.053513307209191785;0.0028619979381512193;148.0;0.10102821805195299;0.06306691058058132;0.003964824610442678;133.0;0.10202537135631104;0.07371585060086999;0.005406303762514453;133.0;0.10286953549465018;0.08093893314982972;0.006517625748461097;137.0;0.10734244746920289;0.07613616529005178;0.005797423686980872;166.0;0.1231480502836753;0.044024124345569675;0.0019392477881041256;164.0;0.0897125554937677;0.0517298648170631;0.0026766894021264115;156.0;0.09170557373815134;0.0509407730278622;0.00259613323507801;158.0;0.09198483377804062;0.04981307632289889;0.0024831883462716332;160.0;0.09099113252782437;0.049015288017712544;0.0024046669973182854;155.0;0.09065005709542022;0.04893812615161939;0.002397752249998853;157.0;0.09004707504947114;0.04866678968513156;0.002370714933450534;155.0;0.0900509041462202;0.04825670867270756;0.0023318972225367576;150.0;0.08997762825543042;0.05258812239826234;0.0027648730619589342;158.0;0.09313433083683485
0.09141290629460141;0.008375113097869247;148.0;0.15646545401730272;12.0;0.0853797640854335;0.007310431013322776;145.0;0.14682997169116185;0.08304011239768441;0.006915446176824286;141.0;0.14293809701485238;0.07908357208847887;0.006274210799543052;142.0;0.14046036371034526;0.06999563311389123;0.00491539769574269;141.0;0.13595441703596883;0.061363387910323045;0.003777794352934331;153.0;0.13094929743249722;0.05574381759467899;0.0031174695281210476;153.0;0.1279958737318319;0.09308264812633732;0.008682087336117684;157.0;0.16114645560171537;0.053508034556528736;0.002872216219892538;145.0;0.12717771448626203;0.058202840121205544;0.0033985352479893893;148.0;0.13287397530572181;0.0648934825818998;0.004224748976562731;158.0;0.14403603526581188;0.06349171180443022;0.004043558866434187;146.0;0.1487422461644301;0.06557102777989124;0.004309310116279076;152.0;0.1510083995494972;0.0657410581144559;0.004328956613215025;149.0;0.15043094998515283;0.0647727545860202;0.00420102275890798;148.0;0.14887118132744592;0.05031826914751152;0.0025399130411439385;137.0;0.12268165918350865;0.12103636921626634;0.01468379927302477;150.0;0.16339602908020268;0.12646141337991412;0.016029976342530682;146.0;0.1658356092434551;0.13821426636273884;0.019151435770605674;146.0;0.16986398436270678;0.16121602884408745;0.026061799390724574;139.0;0.17636655833268514;0.18463554901156165;0.03419148005309914;144.0;0.1850839524511942;0.1940283425306796;0.03776135500956878;149.0;0.19119261472775811;0.16602816072281218;0.02764367110936515;145.0;0.17415569425289684;0.11698801593255323;0.013720303366675589;156.0;0.16070872986356424;0.13366444389386317;0.017912933679412657;149.0;0.16348904367703987;0.13207219970217082;0.017487753488594666;155.0;0.16254847112073434;0.13057959883390927;0.017091225654212935;152.0;0.1614218489254159;0.129441524853362;0.016788189235899694;148.0;0.16054461368300227;0.12301654651984233;0.015170623080321445;151.0;0.15821692156409128;0.12362592211529395;0.015324428425849041;151.0;0.1575301767064082;0.11653476694212542;0.013616486982610511;153.0;0.15795324325717913;0.13538844465446717;0.018378250830410368;155.0;0.1640774495220569
0.07648988904781473;0.00586602662431211;158.0;0.16503155267895137;12.0;0.06988338372037954;0.004896054884491937;152.0;0.1527165366713208;0.06895344483038088;0.004767613621950615;143.0;0.1462304094723089;0.06699736944733019;0.004501711297520081;135.0;0.14302094517441113;0.058829621500370875;0.003471079104656095;143.0;0.13766544179832604;0.05132880717922367;0.002642677411530669;159.0;0.13162092635537584;0.04720313377410157;0.0022345554574372795;155.0;0.1293011506999846;0.07419799010369399;0.005522203567726757;168.0;0.16617904200248865;0.053449177829873476;0.0028635886421544115;149.0;0.13501032053089643;0.061010147123209735;0.003731353574721861;147.0;0.14779321113756852;0.06999047725839676;0.004910521942517059;153.0;0.16184651846957562;0.06231815524989825;0.003893457076733293;145.0;0.15908927994170569;0.061163221601793605;0.0037509683277798045;154.0;0.15497556923484898;0.059092562566818725;0.003500300935474772;148.0;0.15157239067448539;0.05575066576053058;0.0031152604633367356;143.0;0.14943182809322425;0.047064961040591734;0.0022206624032409085;139.0;0.127731442049432;0.19180630544806654;0.03690562003589014;143.0;0.2286532975968735;0.19621141316138918;0.03861779235235286;140.0;0.230733354584972;0.20054373484089338;0.04033796380509882;141.0;0.2319209694800239;0.21648697292791164;0.04698134172147847;147.0;0.23653924384631297;0.23363470341490056;0.05469913557831062;152.0;0.2428066207306024;0.24098575981313253;0.05817600273001292;154.0;0.2479141672191276;0.19962178969898622;0.039930047038559346;139.0;0.20844174082276784;0.18413242669252824;0.03401096580521972;149.0;0.22495719369619624;0.18060963550233816;0.032713564720015756;136.0;0.2201279202240227;0.17904882812705236;0.03214935763325649;139.0;0.2196495230915107;0.17992906854536586;0.032472061429766566;141.0;0.22058286673403854;0.18469904081691116;0.03421499329133024;138.0;0.2230738518148032;0.19645112471971257;0.0387148776995653;143.0;0.22508914515305864;0.2217922229549477;0.04935135208287587;142.0;0.2291590568744209;0.2118364930744657;0.04502014595619537;143.0;0.23660401588155805;0.18054545609010275;0.03269095327516613;139.0;0.21956161685446784
0.07372611686692117;0.005453407826237514;155.0;0.16016767029866164;12.0;0.0656305414831358;0.004319599500137487;147.0;0.1471789400503269;0.06504645489179516;0.004241306992673245;149.0;0.14206835167032567;0.06502743873063295;0.004236445601842153;144.0;0.14151582635647608;0.05637016402725804;0.00318298990283253;150.0;0.13682595642663586;0.04667499646026337;0.002184735499431921;155.0;0.13008727978739007;0.04233013586153024;0.0017974404905104538;154.0;0.12766875095132504;0.06773669013160369;0.004603290997179915;168.0;0.16065114104236994;0.05085330049596218;0.0025943060601319417;153.0;0.1323076340387796;0.05816394681004395;0.003393415703232695;141.0;0.14541494589747614;0.062463617398607126;0.003913579906526333;152.0;0.15473883325591573;0.050967474547803135;0.0026060640850238547;151.0;0.1481739023834188;0.049795367786975124;0.0024875805557091047;159.0;0.14328095595977494;0.049443669304956764;0.0024524957205583333;156.0;0.14038504585831066;0.04891737672858466;0.0024003971726993287;155.0;0.13889469489409992;0.044323728071517625;0.0019705866891706904;160.0;0.12487364257513536;0.21235131113653954;0.04520794608012823;150.0;0.24773674242200136;0.21678704962552273;0.04711458758859862;146.0;0.24980498657108063;0.22045805826288556;0.0487034169345794;144.0;0.2498431590694406;0.2352010384441599;0.055444141644665414;146.0;0.25417295103349524;0.24761412229287413;0.06145904007705586;144.0;0.25730477036945215;0.2526293816260903;0.06399255272795258;153.0;0.25983730673017474;0.2057429485328314;0.04245505588989165;150.0;0.21749570538824356;0.2031884764993049;0.041391151850669404;149.0;0.2414581529955265;0.17851431414531435;0.031954948999867616;140.0;0.227247511118516;0.17885392077555878;0.032078346956558416;140.0;0.22856260608161896;0.18255562265490186;0.03340931820104283;147.0;0.2322441804851478;0.19039761608958145;0.03634972126758711;147.0;0.23740523981903833;0.2080092208798865;0.04339123876136668;151.0;0.24259044493483947;0.23437425899213868;0.05509301922681034;155.0;0.24804656633089903;0.22514354169461406;0.050832039889725754;152.0;0.25331457598438334;0.17787491570278788;0.0317207247020395;142.0;0.22611316485478664
0.08509024849228294;0.007263991627565951;150.0;0.16071538387669346;12.0;0.08338914723853476;0.006975868070760731;144.0;0.15302963066998912;0.0824786203048127;0.0068244439031933555;147.0;0.14937352516146582;0.0800468363083168;0.006428192812265181;154.0;0.14739960942812647;0.07020263696793735;0.004944236934553012;147.0;0.14235798520244433;0.05900260387007933;0.003492653022374628;152.0;0.13617980973028057;0.05263345834704575;0.0027791237135005816;150.0;0.13334425667996783;0.08046459427198326;0.006495385090060414;165.0;0.16554955699874913;0.05114294282702498;0.0026239860953499055;159.0;0.1305286283306871;0.05774434738320959;0.0033447762986922682;145.0;0.13770192814660828;0.0627855316335389;0.003954883000503175;150.0;0.14724404692963347;0.0525283739812768;0.0027682686730799767;161.0;0.1462279739188046;0.051047873052696764;0.002614295131615431;164.0;0.1458412347699197;0.05222537423124956;0.002735958406969764;162.0;0.14520578460251388;0.05439122269981613;0.00296744630061864;162.0;0.1443944640725281;0.047670204119386855;0.0022786795523691505;170.0;0.12654655293111242;0.16152492757593687;0.026175667188952024;142.0;0.21280174735591456;0.1669725916934113;0.02797099796773296;138.0;0.2151347656742467;0.17638018328860522;0.031208984202155027;136.0;0.21635504112640788;0.19501074452484032;0.03814630732519983;135.0;0.22063672386260252;0.20717742524222965;0.043055239801176155;133.0;0.22178777858702045;0.20986348991103276;0.04417386261615158;148.0;0.22231106437628056;0.17079236452916202;0.02924550945409796;154.0;0.18915020280530834;0.15397705056057992;0.023785923997883592;142.0;0.2063923698611317;0.13193484409770628;0.01746389481573333;150.0;0.19334676964540248;0.1338653094301826;0.017977981348420283;148.0;0.19532969689635574;0.13764319747012074;0.01900474560857576;147.0;0.19847904054453083;0.14314110147865658;0.02055519567587077;146.0;0.2022693998027562;0.14696114797471727;0.02166754474333001;147.0;0.20458809819860188;0.15220806787482002;0.023243143576971433;157.0;0.2087719810887668;0.14681269758953336;0.02162463313683355;159.0;0.20927233752128166;0.13229650751438315;0.017558989852255596;149.0;0.19295715112475764
0.10224266518698608;0.010486073525978645;160.0;0.1747648851284704;12.0;0.09455588390450098;0.008966142358184081;159.0;0.1627706093152626;0.09011556075424412;0.00814015019792463;157.0;0.15555764878276915;0.08479817202066182;0.00720376588154995;161.0;0.1501054692012021;0.07508146668319439;0.005647334916800587;155.0;0.145058589040412;0.06455068360180528;0.004176921017414745;161.0;0.13997774125244478;0.05719207236798523;0.00328028679314018;158.0;0.13732141074419527;0.10326435385604493;0.010698403979661788;161.0;0.18160942985202866;0.05967554088533486;0.0035702385286015357;164.0;0.143972002219898;0.06791148551773886;0.004623822714250858;160.0;0.15046106093213735;0.07829520514565003;0.006146256345490096;165.0;0.1579116191237027;0.07092928961261799;0.005046915501977134;171.0;0.15774266945524804;0.06672485056399606;0.00446677420694153;172.0;0.1568432730207397;0.06774011218184971;0.004603612900047313;170.0;0.15633403867174214;0.0729199285634446;0.005334342857328149;165.0;0.1586559291472771;0.05446536341256235;0.002974576230421796;163.0;0.13852380191646735;0.11385015321587083;0.012990620582624577;141.0;0.19212871970546627;0.12015742413313608;0.014471724067064057;144.0;0.19405250203970695;0.13126501127383267;0.017272472811697574;142.0;0.1961130390685066;0.14260936076176792;0.0203907493239306;141.0;0.19675817621334984;0.14275922630385907;0.020425251770013635;141.0;0.1946415912188811;0.13756365066496717;0.01897064801545895;149.0;0.1937071210333734;0.10931355877092902;0.011985865472411471;155.0;0.1663964879650571;0.10747827579614928;0.011571023899217804;143.0;0.18832744776878566;0.09309831877401864;0.008690507353122247;149.0;0.1805502451210452;0.09440097849533377;0.008937929942424906;150.0;0.1807279454470223;0.09698650480557731;0.009435608806340378;147.0;0.18144490185703624;0.1020707779089896;0.010451016989153175;144.0;0.18366754803829338;0.1062138381845855;0.011315335870324773;146.0;0.1856385850596279;0.12004747198665307;0.01445268804158094;152.0;0.19605004982574478;0.11441895087041251;0.013125374479468524;157.0;0.19882464192798394;0.09178141026600292;0.008447770861462573;149.0;0.1799181846415845
0.10274320895053027;0.010588065480626399;154.0;0.17374293350407038;12.0;0.08891505498957021;0.007927811735231622;159.0;0.1569545383889631;0.08340775747819112;0.006976029255475426;162.0;0.14923383747310565;0.07843984309069858;0.006170517243025067;166.0;0.14526086328807483;0.07005053730878873;0.004921632021288611;160.0;0.14102336043402428;0.06162079143815247;0.00380820595223318;160.0;0.1374157057055123;0.055386357211028386;0.003075939504994962;161.0;0.13509487134019174;0.1077807355123887;0.011652953620311853;153.0;0.17952528887421443;0.05759643698604847;0.003320266009554865;152.0;0.14166796304531315;0.06334037229235902;0.004018400403048875;152.0;0.14795019890183186;0.07153393286557012;0.0051272783772570805;156.0;0.15265744877527182;0.07036462370008689;0.004965145066161168;147.0;0.15329830667271463;0.06871407822334673;0.004735216229363502;159.0;0.15332605803619395;0.06906628775494682;0.004783598169286553;163.0;0.15369218580995775;0.07347994853493034;0.005414938331400723;161.0;0.15662218601017208;0.05266946203105933;0.0027766938197964297;151.0;0.13673977392090597;0.11412118919043862;0.01306304491748565;150.0;0.19107107526906847;0.12062673279474809;0.014593354462469343;148.0;0.19259235887684292;0.13095049961446953;0.017200257881092137;140.0;0.19531694437344424;0.14321604284919093;0.020573092861762166;144.0;0.1981269979828341;0.1420802543565155;0.020244479050853404;142.0;0.19691534153976123;0.13449064291022528;0.018141128186490826;139.0;0.19409839368201018;0.10381662165103551;0.010800722001373164;143.0;0.16632588290714354;0.10443434341722473;0.010937695802633199;147.0;0.18450139077312466;0.09348312930854401;0.008766549131737642;152.0;0.17834077586267394;0.09340380124010308;0.008752191591941367;151.0;0.17784098588033137;0.09453321281662164;0.008963332690713002;151.0;0.17846795421479517;0.0976942805554107;0.00957365397184189;153.0;0.18036397937270504;0.10321541145629697;0.010685979408778972;156.0;0.18327248734552015;0.1198104517085245;0.014397947745178387;156.0;0.19316090794308252;0.11194413161944256;0.012570701581044034;156.0;0.1932347053678877;0.09271600713510145;0.00862336192343911;156.0;0.17718450637358477
0.08600403606943001;0.007420242792347891;151.0;0.16481357200977811;12.0;0.08036299546691462;0.006478233131521666;150.0;0.15551938786327751;0.07876517537404613;0.006223557077351068;150.0;0.15191412341828975;0.07505038995830482;0.005649835571474934;152.0;0.1499253412468406;0.06632103729320805;0.004412011570343654;152.0;0.14458508830376163;0.05775115642371104;0.0033453422769965354;149.0;0.13910159798048424;0.05168385702902955;0.002679267468392471;149.0;0.1343623832189898;0.08769810450658548;0.007714805323480543;148.0;0.16748623286526917;0.05206252137990554;0.0027188571806226304;145.0;0.13793826105881385;0.056641823151978805;0.0032171683257433505;148.0;0.1447296976962441;0.060165054324306626;0.0036295644516504944;137.0;0.15232166486745136;0.05799767569592041;0.0033714236943382125;125.0;0.1526052293084212;0.05749771342396282;0.0033154346935968895;144.0;0.15181967916975167;0.05686022044807394;0.0032434265809898936;146.0;0.15042446550095556;0.058561647153132966;0.0034406748886971353;157.0;0.1491832553715318;0.04879105915805921;0.0023878243404183304;142.0;0.13517221817345543;0.09584658517025364;0.009212877773976917;163.0;0.17635105304126705;0.10278288982796677;0.010596974909243445;156.0;0.17841685372494243;0.11329594292727693;0.012877026535358903;149.0;0.18344931638769138;0.12077261078238948;0.014632414715500294;157.0;0.1861855256510409;0.1154789018521034;0.013376527113590596;163.0;0.18094167895935037;0.10787575515423761;0.011667640868333202;157.0;0.17558682258549488;0.08130596927054232;0.006630950416053597;165.0;0.14747567324670047;0.08588589855022363;0.007395043767522893;158.0;0.16986745211967547;0.06932220489622747;0.004818842901119788;172.0;0.15778042418432592;0.06864653402500713;0.004723592987203804;168.0;0.15766315763001013;0.06883964784203964;0.004752844412583779;163.0;0.15926370920982028;0.07038868274886333;0.004968435520660673;164.0;0.1616502805273534;0.07559547665484417;0.005731662011307168;158.0;0.1669615361593105;0.08754032860951473;0.007685058887018256;167.0;0.17652266126561378;0.08710354418862842;0.0076067397570462455;161.0;0.17486266449437035;0.06901998810566544;0.004777054054043952;172.0;0.15693088276421052
0.07373770147146766;0.00545286099453959;162.0;0.16083859421722582;12.0;0.0708822127155599;0.005038987393280277;157.0;0.1522823789970992;0.06841944012929685;0.004695131865668236;160.0;0.14628592209468982;0.06482063440724621;0.004214784147805073;164.0;0.14326507366841437;0.056969347022006844;0.003256021313616277;166.0;0.13754698961171477;0.049539758292394556;0.0024616574693503263;156.0;0.1310812520638561;0.04470172670027443;0.00200394193174303;150.0;0.12512348630810224;0.07192011589787649;0.005184294434574339;148.0;0.16064255026241578;0.052207980665854484;0.0027288286775364063;161.0;0.13501580542370656;0.0587212263332646;0.003452577605903203;165.0;0.1422940876804322;0.06309645788867195;0.003987058553460591;160.0;0.149019880111441;0.056447360987789796;0.0031913667413585017;158.0;0.14766055066992748;0.05241213440134784;0.002751229053321111;161.0;0.14453440226277595;0.05172907173209925;0.0026812819826173766;159.0;0.14259946433352383;0.05329583266846678;0.00284601246766008;166.0;0.14146622698454098;0.047162770700186755;0.002226478528795619;153.0;0.12797722725257143;0.0855597107798547;0.007344427447096099;158.0;0.16675060786349474;0.09118608395313195;0.008341708477900103;153.0;0.16898144112144192;0.0987649395843247;0.009785140174632287;153.0;0.1736891220224485;0.10130575611405773;0.010293847511434003;151.0;0.17151152594364222;0.09684791333626147;0.00940929987615506;163.0;0.16662039017825803;0.0923630577597994;0.008557948174956809;168.0;0.1646470074772698;0.0712974052894924;0.005099012185140052;173.0;0.1399774771616201;0.0791177808363564;0.00627984104988269;157.0;0.16458906463865253;0.05912566264822742;0.003507194212893252;170.0;0.15158284772751113;0.059005504385197444;0.0034930211596781407;168.0;0.15104330698289786;0.06015355772308054;0.003630318007670511;164.0;0.15261476494163354;0.06184105769431285;0.003836734874270004;159.0;0.155869308362069;0.06561093033737557;0.004318231505006104;149.0;0.16053279582733437;0.07669641955540663;0.005901182432324818;165.0;0.1699780615301986;0.07928803131481231;0.006307139947752196;161.0;0.17018990438316228;0.058553834242867746;0.0034397682049236485;166.0;0.15074005101461216
0.06309986197503188;0.003993799908359354;160.0;0.13982405962211622;12.0;0.061735915011052425;0.0038228899346114354;157.0;0.1321293704307868;0.06175862903199028;0.003826258357933977;160.0;0.12776083932715473;0.05919605092767851;0.003514276566446492;171.0;0.12541708037124094;0.05111752217944126;0.0026193442100877077;165.0;0.12079827424823154;0.04410576253715347;0.0019498921411490583;166.0;0.11682328722103456;0.04114143285754134;0.0016957706989763949;167.0;0.11344223513188581;0.05991269032686268;0.0035993893932331844;153.0;0.13831590327083496;0.043731080963766725;0.0019123725608002921;164.0;0.11379117752977531;0.04887937982258851;0.002390278366100655;165.0;0.11708362412894793;0.052584915080462376;0.0027637612859188507;164.0;0.11796753592147996;0.04240955215815378;0.001798603736609924;165.0;0.11719424364736834;0.04256050883157807;0.0018168191897096253;164.0;0.11612364963487792;0.04475852342581322;0.0020093390172404206;158.0;0.11992860888334028;0.04534536145354647;0.002062009018113774;155.0;0.12177236108195413;0.04243121469597701;0.001801510504124878;164.0;0.1092266276625337;0.05958182307944424;0.003561534557262917;155.0;0.12067470729880271;0.06015321527483583;0.003630198378226888;147.0;0.12304911998873552;0.05846268058100989;0.003429044520751;147.0;0.12538840049737374;0.05897816513302413;0.003489792539391715;147.0;0.12110821055186036;0.058538548147571;0.0034372644468538245;151.0;0.12016776084947842;0.05676852280365161;0.0032323922702129273;147.0;0.1205933959320588;0.04927279789851065;0.002435745387599935;151.0;0.12147554022824954;0.053725108488874254;0.00289576008499845;158.0;0.1188148501659654;0.041017295202563135;0.0016872864778069113;160.0;0.11362913323459482;0.04174797980790599;0.0017481565992490294;157.0;0.11274078366986057;0.0439269872677887;0.0019354857039599288;159.0;0.11355627637163221;0.045872635962603686;0.002110785989968712;145.0;0.11597410970673455;0.047467061007622054;0.0022600587704598284;155.0;0.116934265810225;0.05253286421836631;0.0027686021311854004;159.0;0.12044610333401337;0.05189176099468341;0.0027013036407492904;165.0;0.12129230584912827;0.040089032805424474;0.0016115572172945487;153.0;0.11244849937472512
0.2429848559729046;0.05922717750455118;162.0;0.20795239562621834;12.0;0.24813388471214462;0.06176675503662107;159.0;0.20600656774842735;0.26508322978441023;0.07049669140468183;162.0;0.21006074241748568;0.2614977379500977;0.06860322440893443;168.0;0.21038789039673497;0.2199131651601566;0.04851988016470408;159.0;0.19743879514150423;0.1876517991035895;0.03532862783315615;164.0;0.18966674631648495;0.16837163653338494;0.028441717207175796;169.0;0.1865730740864332;0.23526190795773771;0.05551161682529994;165.0;0.20580776087823238;0.17086850923886096;0.02929077070804794;156.0;0.18674076056604302;0.19342778941620323;0.037532531407461885;165.0;0.20330368097995405;0.20657596826180022;0.04280117126012681;164.0;0.21151801818219435;0.16831502031325088;0.028414757134828175;154.0;0.19939663097780397;0.15284740727915644;0.02343589062750058;161.0;0.1939324803826613;0.15719788299622467;0.024789257093386575;158.0;0.19135383484702012;0.17142200627794535;0.029477987643626663;161.0;0.18853719330783156;0.15171207238066337;0.023092042733884054;157.0;0.17950432092591295;0.01488759972328601;0.00022086386799104852;156.0;0.06855597960288434;0.015972577918928456;0.000255171540315397;147.0;0.07338573430438966;0.016623420163324285;0.00027710449008429923;143.0;0.07108332767618629;0.014197851790124352;0.00020214412590245173;157.0;0.0653788930374691;0.012923898287669565;0.0001672540719315777;162.0;0.061461359448816935;0.013590285368847215;0.00018476549864511122;152.0;0.058949570274928684;0.026081468187505265;0.0006811273304170798;157.0;0.09619918204145313;0.0118112398491597;0.00013907168149298002;158.0;0.06314620276747185;0.012036951342295233;0.00014439463470856264;155.0;0.05695156722782238;0.012561265336190425;0.00015676697561693053;152.0;0.05571979673519687;0.014157044146001593;0.0001991953829614502;150.0;0.056174905165720705;0.01448961710059599;0.00020871369694157397;151.0;0.056088383772283;0.014886950917544923;0.00021947915375652394;166.0;0.05652217763170172;0.015181456521883536;0.00022774328324637886;163.0;0.057303810062495165;0.01203260013090171;0.00014324344519293662;169.0;0.056873295122798304;0.011301294301979;0.00012720882668436709;151.0;0.055424140720982965
0.2842108403167074;0.0808889564627292;153.0;0.2645134459238798;12.0;0.2979983963436598;0.08894822668592382;144.0;0.2632605199775862;0.3241185928623758;0.10522087406519466;146.0;0.26856089930196747;0.3228153666336169;0.10440983603276094;148.0;0.2698831526496477;0.27994572202993234;0.07847389379403621;142.0;0.2573680307127019;0.24510098720827556;0.06015820536592701;146.0;0.24912601358364816;0.22399199085560934;0.05024296901847755;142.0;0.24400588792280448;0.27558692398615514;0.0760787474899225;158.0;0.26536528024905903;0.2230115776765811;0.04977876601213984;147.0;0.24822120883579205;0.2497657800239652;0.06245131721751754;161.0;0.26954451178673905;0.2714267562570742;0.07370258811869335;155.0;0.2824503566713165;0.24311628931117066;0.05914689283940721;152.0;0.27584485802644676;0.23116292670959848;0.05351459504598486;159.0;0.2727467401301236;0.22594966213293471;0.051109745501945136;163.0;0.26382095981660053;0.224587432540367;0.050502833396954494;165.0;0.2544196702234153;0.2017947233075701;0.040763627018619374;143.0;0.2375089944401377;0.013229453482844322;0.0001755721981048456;149.0;0.06657767669638631;0.01424070423882702;0.00020344496432479187;143.0;0.07071722345037447;0.013220951419035953;0.0001753654556496969;139.0;0.06924699550730204;0.011127901057612327;0.00012423319283405096;153.0;0.06417195410900255;0.010014768603312326;0.00010053659589511482;159.0;0.060644135007522144;0.009843037869959749;9.705468355917074e-05;158.0;0.05771832048638649;0.024597154600130965;0.000607010847346935;153.0;0.09480642306694285;0.009942377352883768;9.910447259864654e-05;151.0;0.060695202948533505;0.008600249110161691;7.407506593689913e-05;146.0;0.05459810369596364;0.008609758568526873;7.428690206672077e-05;145.0;0.05602479883768962;0.008379586878864144;7.033057792684281e-05;142.0;0.054616591514205115;0.008071735578382252;6.528857421803846e-05;151.0;0.05436932326528835;0.008538434277600261;7.308005999477457e-05;157.0;0.055186179958396316;0.009029626330834605;8.177239227301345e-05;161.0;0.05604136791355303;0.009014891587336746;8.151794507357365e-05;153.0;0.05630690314565027;0.008643108277853325;7.482625328883802e-05;147.0;0.05575326923252033
0.2519425067212927;0.06367140358681912;158.0;0.26829392317220685;12.0;0.25224808576541974;0.06381382436823596;154.0;0.2610254542915023;0.26726169375870007;0.07161936351937315;154.0;0.26297460151792024;0.26493756942619456;0.07037696263582796;152.0;0.2612041259261119;0.2307515464931915;0.05339785003662216;152.0;0.24873850636542846;0.20226619905482976;0.04102675181904431;155.0;0.24064867308645038;0.1862329415404737;0.034786952748327146;149.0;0.2355469854307516;0.23939983449622546;0.05748179387740081;166.0;0.2705453354735233;0.1865078719987768;0.03486863096767642;152.0;0.23572835522360303;0.206690507956178;0.042827953783736654;169.0;0.2516629907558554;0.22525510196389223;0.050882340806499594;165.0;0.2618051927207161;0.22109110427065579;0.049016930748540896;162.0;0.26490054411422864;0.22709495700160395;0.051716950642696276;163.0;0.2709255175734151;0.2263035864949643;0.05136312347903623;164.0;0.26671901288899647;0.21658326308391887;0.0470377737936139;163.0;0.26124470846727627;0.17313921035574295;0.03004884685261446;152.0;0.22885985922101978;0.037857222707790045;0.0014354233937170463;140.0;0.0875829406574315;0.04111735027427369;0.001692902778226343;139.0;0.09093799236013847;0.047972910130004244;0.0023027236295912845;146.0;0.09534469968151502;0.06066505979622791;0.0036804332341865893;150.0;0.09734681839106415;0.07464013898307306;0.005569104761288622;149.0;0.10240527972467896;0.08509836074675459;0.007239165073777219;146.0;0.10797947718765202;0.07184999954007189;0.005170184286271357;145.0;0.12069367272455879;0.036762291413669705;0.001353665477622241;141.0;0.08314646971944747;0.041690664158162485;0.0017382030918873053;145.0;0.0818236565718084;0.04042379682276017;0.0016343570343644734;145.0;0.08285754770837177;0.03915210727860368;0.0015334958346269014;145.0;0.08044822460663684;0.03743119489076087;0.0014014544269959428;142.0;0.07906738435731046;0.03775229882267518;0.0014256701425025492;151.0;0.07903054663019332;0.038885234333993365;0.0015119421390430614;154.0;0.08049306647119844;0.03831986542032217;0.0014700510125606465;142.0;0.08120145030454533;0.043180327627993266;0.0018646323790561692;150.0;0.0844136917196344
0.2357064045734253;0.05563444946614132;162.0;0.24645284267351264;12.0;0.22183943634043496;0.04927573068668015;167.0;0.23525059421006794;0.22076607261771292;0.04876187550430234;166.0;0.23378357545712686;0.2113775621527322;0.04470882282288519;165.0;0.2294103654681476;0.1770560228045116;0.031355340731332684;165.0;0.2169439450804468;0.15121099511459563;0.02287343105498032;164.0;0.2068813062011946;0.1383597428936692;0.019170949543066272;161.0;0.20286344322336147;0.2264260334128445;0.0513742626023827;168.0;0.2516159835738857;0.1544518280757466;0.023895493406831926;157.0;0.20819019025357832;0.17363672801398478;0.030188262978936054;169.0;0.22832120088079055;0.18815706165725962;0.03544120667168899;175.0;0.2413485515331045;0.17971374148591854;0.03232416790876981;167.0;0.24016914164023406;0.18696399352345974;0.03500336477103323;167.0;0.2442329766546773;0.19641855244498924;0.038634804889364216;171.0;0.24205558550908565;0.19921746845280827;0.039758495862381955;171.0;0.24060480210408772;0.14190436199457696;0.020181826357775386;161.0;0.200238973667631;0.140397434427106;0.019762863863684078;140.0;0.17166511703851256;0.149757807195683;0.02247944345790625;140.0;0.17703929097477666;0.1676284735703152;0.028166868597492282;141.0;0.18460826320031037;0.19437898150511873;0.03787160821558098;140.0;0.19492743154182599;0.21177006398796572;0.04495785033687817;140.0;0.20369456692248722;0.21646899487369545;0.0469773691869941;138.0;0.20949337703858018;0.17483843455566125;0.030651827751045222;149.0;0.18700422548525608;0.141202149479391;0.01998925681579381;137.0;0.17023487932594678;0.14672723525864562;0.021586190961845886;144.0;0.17219016597702586;0.1451838923406724;0.0211324590039791;143.0;0.171812246039606;0.14603890697949204;0.02138330896317783;142.0;0.17201256902044798;0.14967125621279534;0.022459836744340378;142.0;0.17308849541015778;0.15290007390788266;0.023434339429984175;145.0;0.1755610659087557;0.15803288664047185;0.025040898331976758;148.0;0.18068413937633768;0.145236878481972;0.021147944884904953;142.0;0.17544368346873;0.14884790311527424;0.022212361548706764;149.0;0.17347961402874604
0.1680484695240001;0.028303068749739226;146.0;0.22049652660967797;12.0;0.16793355677074176;0.028261143874779137;153.0;0.21191342132912813;0.1726021543859302;0.02985531119171773;151.0;0.2125735593160075;0.1684656537448967;0.028453005158033364;153.0;0.213116542885107;0.14657852823919726;0.021538481299599396;150.0;0.2059751693247755;0.12429080097009572;0.015487630425409097;150.0;0.1935586389941334;0.11336438840670708;0.012882911657072067;151.0;0.1873793040544944;0.16870870198361967;0.028499877931230808;149.0;0.22868283913459272;0.13823429206017046;0.01913969683696013;149.0;0.20703989341902032;0.1526412216742004;0.023351557660408626;153.0;0.22652068462699612;0.16653930565301886;0.02778615329714289;161.0;0.23889521116484816;0.16413832245713095;0.026990735158552256;167.0;0.23704858986393723;0.17035702371814346;0.029087786944143757;166.0;0.23788674614408822;0.17311223463293499;0.03004229053027827;169.0;0.23539356916076157;0.16465057245764647;0.027179384692882107;163.0;0.22982595574679257;0.12843050833247416;0.016517934696115334;154.0;0.1976752506167676;0.17051150787075203;0.029149230702521692;158.0;0.20684897273836142;0.18240763677004104;0.03334881501533828;158.0;0.2118200497117725;0.20256318024388453;0.04113049433049261;146.0;0.21665941669644656;0.22968855822516326;0.052875721876795595;138.0;0.22216475214098463;0.24116607380363786;0.05831333613940746;141.0;0.22557136477009376;0.2382219960273326;0.05689373972315634;140.0;0.2262593346377567;0.1908661473874015;0.036523897432027906;146.0;0.1960225359078356;0.16927215258802125;0.028737825400435863;157.0;0.20538514149797318;0.1621189826869456;0.026359165371950967;152.0;0.1994119498657391;0.16068172240335904;0.025889686141549607;150.0;0.19975291974117693;0.16198880481280364;0.02631597349911542;149.0;0.2006934517690845;0.16681487963050132;0.02790930618019714;155.0;0.2034892710708462;0.17293737854925031;0.02998964777991323;152.0;0.20739541108066795;0.1836561047443631;0.03382357683687806;151.0;0.2142983800482459;0.17083845857932572;0.029269815401946096;146.0;0.21124298968846114;0.16428011833162517;0.02706297588979475;152.0;0.19947428300800937
0.14660932576733698;0.021563234834967842;141.0;0.22097862141532595;12.0;0.14416350012249685;0.02085080452595386;142.0;0.21000059297990603;0.14827413562262504;0.02205631846366454;143.0;0.20721706196549747;0.14795598507419105;0.02195761913133622;145.0;0.20916312048435343;0.1272489167734842;0.016237017673610958;149.0;0.20053829100766998;0.10329185633805443;0.010690158314111043;149.0;0.1886627932059474;0.09008110805776248;0.00812880376694468;152.0;0.1818222802689142;0.1484759411977804;0.02210980445893806;150.0;0.22517202669415928;0.10692394230358139;0.011461256130887804;150.0;0.19660624182276254;0.11354035302950789;0.012926014673673965;146.0;0.2053301380371702;0.11924619391515841;0.014256184504682037;155.0;0.2101490667448691;0.12536673485438404;0.015751974359818642;162.0;0.21021685719273958;0.13944288705158994;0.019489833914225905;167.0;0.21558167269938602;0.1439362449573434;0.02076433098302888;164.0;0.21863468823787457;0.13319696306043832;0.017774424400259923;158.0;0.21736486895084106;0.10220722067809566;0.010471515417997037;151.0;0.19152818857105086;0.1378966695964562;0.019077630674530593;162.0;0.1973584125560721;0.148971651820718;0.022264892845976252;161.0;0.2012014463135193;0.1663479799711375;0.027761834096752876;152.0;0.20407767080238193;0.18781128318889406;0.03538840988716669;140.0;0.2027102203941694;0.1927482423254168;0.037271877333682944;146.0;0.20032882826482132;0.18565429183487067;0.03457966175102492;145.0;0.1973361116395731;0.1435003612119833;0.020659617160944433;145.0;0.16777716772652737;0.13333200819801375;0.017833741862895273;161.0;0.19484032183806094;0.11590892281358826;0.013477969856592636;156.0;0.17994779951589515;0.11470282614815254;0.01319894885736218;158.0;0.1803771618436544;0.11423757713975624;0.013090698240452068;159.0;0.1812587042534128;0.11589253280769109;0.013469920485902256;165.0;0.1830085027009403;0.12190555499467577;0.014906566919373608;161.0;0.18635030808981504;0.1331067069580076;0.017774159091175534;159.0;0.19208669058402786;0.13041374387254406;0.01706216033570918;153.0;0.1959626712225651;0.1173751204978468;0.013821374732796082;154.0;0.17885300594945353
0.11412364001448323;0.013066473431522554;146.0;0.2017217393909156;12.0;0.1073793346139646;0.011567960052842035;145.0;0.191427259784897;0.10588190733321234;0.011247246026704131;146.0;0.1863575613086267;0.10194413666500532;0.010426581269049771;140.0;0.1855436688746156;0.08796240922424209;0.007762674021017354;149.0;0.17844458507016425;0.07430323602093217;0.005538996808129743;153.0;0.170493023368404;0.06574245539635924;0.004335863546520783;153.0;0.1647529662062089;0.117540511757648;0.013860941512237289;150.0;0.2032492225087716;0.07427731614082253;0.0055319076692009585;148.0;0.16684024344459486;0.07480249246049848;0.005607641386422848;146.0;0.17048408782589305;0.07698247755178016;0.005939979829095854;153.0;0.17645930308204713;0.07889496398194236;0.006240136595296345;148.0;0.17763418440719192;0.09067189432079367;0.008238769623479988;150.0;0.18303199369475712;0.09915857073870746;0.009855875965229237;152.0;0.18751203619214604;0.09691434399460934;0.009414277606745137;149.0;0.19039753596523853;0.0723575654863292;0.005250487360450509;146.0;0.1618170680515409;0.1304037129166577;0.017046386891068317;156.0;0.20333526243016686;0.14101862036851137;0.019927728895314002;155.0;0.20849526929762746;0.15797759888330629;0.02500966037331004;155.0;0.21430749885153738;0.17978527190949647;0.03239824404766698;144.0;0.21529966665165026;0.1852281444926487;0.03438795738016907;150.0;0.2135070526478535;0.1783778174097786;0.031900622623385874;151.0;0.2104979064493014;0.13530177084533904;0.018358997723384937;147.0;0.1762161276057665;0.1243045765762924;0.01549748295641762;152.0;0.2004442935662384;0.11638764444974554;0.013584348252372185;159.0;0.18953825918475722;0.1155695024291839;0.013392306278080392;159.0;0.1891466704476226;0.11545806396912567;0.013362061196446012;159.0;0.18973042906062318;0.11692247991372552;0.013702967836886648;161.0;0.19111147828827277;0.11921499577583397;0.014245406589747787;161.0;0.1945539779378734;0.12379821281835275;0.015365817158026328;166.0;0.199059013608049;0.11904720331515928;0.014214747148366097;159.0;0.19938743655082422;0.11727013282504087;0.013788913182097127;162.0;0.18887378697148546
0.10983672498659283;0.012102762372798313;152.0;0.19232608498399265;12.0;0.11105956945514026;0.012371029276229462;157.0;0.18571736324981242;0.1092331373710315;0.011968481840889004;155.0;0.18214085057633458;0.10201565200768935;0.010441159169913653;145.0;0.17859369802071753;0.0887041381856642;0.007893987560687647;151.0;0.17370974360141944;0.07596794938481233;0.0057896990910848815;156.0;0.16641706326113034;0.06787613296644039;0.00462206499624031;153.0;0.16085602136305252;0.10433150878949683;0.010919790338402726;152.0;0.19090553522222561;0.07453377812171125;0.00556786376438015;157.0;0.16434237178982308;0.0765760434730955;0.005878194423341696;159.0;0.1694177201552788;0.08012663381269278;0.006439837366165297;168.0;0.1753254408271521;0.08387556654519275;0.007058059339967036;161.0;0.1778825576769338;0.0931189673892734;0.008699201247747519;161.0;0.18012359813291864;0.10003526193139274;0.01003963482632559;166.0;0.18412749161107186;0.09636026059944801;0.009315428901125711;153.0;0.1846914257363305;0.07315330591802974;0.005362224385112135;158.0;0.15903262312825922;0.12696121636353558;0.016154948661100645;148.0;0.20523527138935044;0.1347725465283247;0.018203741159875556;149.0;0.20849268786324238;0.14601937132863027;0.021365424331088498;154.0;0.2101025991228832;0.1602877873322888;0.025741301726152747;154.0;0.21109284311743948;0.16032726797677918;0.025744703298534486;151.0;0.2092745479211442;0.15374158359511572;0.02368124535041106;147.0;0.20617259144839584;0.11632939814052377;0.013569813658602574;146.0;0.17461177687550772;0.11940320252715024;0.014296057876887916;142.0;0.2025641449761988;0.10269577756349138;0.01057303359860663;148.0;0.18579215556253023;0.10182965546436622;0.010395953758127734;145.0;0.1849163131413567;0.10176481234525454;0.010378673729760738;145.0;0.1840996789661408;0.10403027049887026;0.010850523464269525;147.0;0.18513941566040543;0.10820127767392992;0.011732387276977408;154.0;0.1894254003144859;0.11573385734063955;0.013419426071025295;161.0;0.19397338387235985;0.11060122397350779;0.012259547891226906;152.0;0.1946632027661062;0.10402655243183534;0.01084846089895063;152.0;0.18564797223550777
0.11492199611976785;0.013248911301266215;153.0;0.19002865794501647;12.0;0.12190845761138908;0.014907278697858645;151.0;0.18596766358342487;0.12194748509833393;0.014916200929003332;154.0;0.1826206704406014;0.11223359291301209;0.012634149985412237;154.0;0.17868091183682927;0.09689302648764231;0.009417246518811675;162.0;0.17222762921936438;0.083095168137296;0.006926645546376167;166.0;0.16452519982734803;0.07478309881727042;0.005609949881206661;160.0;0.1603279516962078;0.1048775051468037;0.011027727434798532;156.0;0.18421238672325527;0.08373110746440474;0.007025218976700934;165.0;0.17514333449968253;0.09181887320206221;0.008445941510232735;166.0;0.1859805830305587;0.0977292403913591;0.009569754869692035;168.0;0.1921725314346305;0.09465861128109053;0.00897693184032968;168.0;0.1893137399035295;0.09612495798035563;0.009260306167506225;172.0;0.185855689216088;0.09863813791671541;0.009745907160973939;171.0;0.18700380478884537;0.09550922910130054;0.009140447870721416;164.0;0.18478467508731475;0.07880440918312977;0.0062230598029133525;166.0;0.1652345812246326;0.10920767911946128;0.011963171188887699;148.0;0.19532129942401105;0.11597409681776577;0.013485619608970257;151.0;0.198781575391531;0.12354592544641109;0.015296135653449052;148.0;0.19926986292017884;0.13333296092158617;0.0178151165577315;154.0;0.20119976621479177;0.13101416696442014;0.01720393226876152;147.0;0.1987587980087973;0.12465989486665584;0.015574370738535728;143.0;0.19489913995599129;0.09329209422169567;0.008707912257330442;149.0;0.1606632098476925;0.10011785458511742;0.010054995813297373;145.0;0.19243644716491773;0.0773283936349195;0.005993263230462026;145.0;0.17000972189879401;0.07577496484877962;0.005754168418935384;139.0;0.16863536711353597;0.07528742884505295;0.005681739670512872;142.0;0.16752544153883153;0.07699279307382549;0.005941799146727779;143.0;0.1674252789797896;0.08287866589670162;0.006887556368163625;144.0;0.17141733480509722;0.09382420292241825;0.008828579104594442;153.0;0.1793996480117544;0.0905425481996375;0.008223965735282097;151.0;0.18055088716569162;0.07883438273854788;0.006228133594384741;148.0;0.17040625714274052
0.19025744205878922;0.03628541687241632;150.0;0.21370897387533552;12.0;0.1945117453495609;0.03791408494000345;139.0;0.20907321444297158;0.2073389428039013;0.043081760128265194;141.0;0.21377136947160544;0.20997425075127832;0.044177498278734025;142.0;0.21565775454434097;0.1845633892176671;0.03412733414987631;152.0;0.20484788675663487;0.1604644121892;0.025791905250936758;157.0;0.19395646728413168;0.1475876382646687;0.02181428053373216;152.0;0.18845274439071205;0.1875750036204703;0.035285412277686924;150.0;0.21003030922265215;0.20933698097057307;0.04385939442125517;152.0;0.21211294448963663;0.24270151238868315;0.059012258637797306;154.0;0.2361564882739402;0.20506425604442471;0.04216457719456683;155.0;0.23802303313171136;0.15194710247958604;0.02316004298482682;153.0;0.22604538487923245;0.14999361982322992;0.022569468539548554;151.0;0.21885931368494546;0.14998227475567222;0.022566112653016113;144.0;0.21387308853828219;0.15307097943246425;0.023499187027676498;148.0;0.2091188262952288;0.17959589321279687;0.03225415603137724;147.0;0.1950404200959324;0.0674612862830887;0.0045646117531019745;149.0;0.136851432434846;0.07486557133199348;0.0056205738579879075;156.0;0.1423058556002598;0.08275067193546952;0.00686486584587281;147.0;0.14578670714984202;0.09163914237820947;0.008418340648471368;154.0;0.14822565488397846;0.08968786131683473;0.008064687298638022;148.0;0.14562237995649957;0.08243415324993326;0.006812606002784787;149.0;0.141471383101362;0.06450700831735225;0.00417424911377737;148.0;0.1262208029854553;0.05870840167129408;0.0034569249727642846;152.0;0.13334808593910194;0.04559050018522696;0.0020847505046349456;156.0;0.1225982111122327;0.04452251897682208;0.001988078688858546;156.0;0.12139822781267359;0.0452817257151759;0.002055871602535591;152.0;0.12124505065794108;0.04673265946101632;0.0021897737276244116;159.0;0.12094158215144372;0.05007804964873969;0.002514749926573257;164.0;0.12304739654465524;0.05849592901842524;0.003430059876769991;170.0;0.13125325474604524;0.05251273988593423;0.0027652374952600732;174.0;0.12777157932151242;0.04624527956216026;0.0021451583708537937;160.0;0.12260458680976585
0.2481276495603994;0.06174413941521616;150.0;0.2463267149012814;12.0;0.24013475819777233;0.057833816654285344;143.0;0.23458808074220314;0.24585525884722703;0.060631532962220853;147.0;0.2342505208861856;0.24727991645264957;0.06134299047073205;145.0;0.23433312380785884;0.2202365761124501;0.04865981262553734;146.0;0.22347033619848236;0.1937904165850683;0.037677310395416067;147.0;0.21471345847583362;0.17868327704521644;0.03203212126206895;139.0;0.21052670742531585;0.2532177026710511;0.06430909084659749;150.0;0.2485167620819471;0.2251750823811411;0.05086936832498294;143.0;0.22610262146154514;0.2567575005328817;0.06613956945271202;151.0;0.2501649741882601;0.22290191518213098;0.049841584872628415;152.0;0.2575806036599895;0.1726031911145103;0.02988180534209112;150.0;0.24977259018326772;0.1733542704255929;0.030146259108666203;152.0;0.2443495713159999;0.17792267741766007;0.03175363139309788;149.0;0.23866384138287636;0.18834418098416006;0.03558155754959328;151.0;0.23654730503213336;0.1995868846811609;0.03996500054025845;139.0;0.2143992069563087;0.014183419112458571;0.00020058054327825738;144.0;0.06429113030164588;0.018234604744466823;0.0003303861809667903;153.0;0.06650032455202627;0.024720136659342983;0.0006058172257378595;148.0;0.06689458825205416;0.029487827436315384;0.0008606189804209237;170.0;0.0641188860457468;0.02840510046621725;0.000799628890368941;164.0;0.061590264084185345;0.02496880626222497;0.0006200174046156709;158.0;0.058962082827939195;0.030878992735136508;0.0009495642924129526;149.0;0.08896265278027282;0.012810439264204991;0.00016392097649060413;149.0;0.05914145006676639;0.013467387077030995;0.0001804085569359822;160.0;0.061762875036109374;0.013244562356413568;0.00017487550036018236;164.0;0.061035101379817325;0.013228174207116883;0.00017470496720138767;156.0;0.06145754794509471;0.014266625775529338;0.00020370476664741162;163.0;0.06187975966382337;0.015031941695630777;0.00022592073542512675;164.0;0.061428626516304;0.017495900874937985;0.0003058170857403268;177.0;0.06385654037090759;0.01516542790664398;0.0002297011308853039;177.0;0.05975402927858412;0.014030792273789117;0.00019575563256610297;170.0;0.05984031103054776
0.20651857396503032;0.04277127562896155;151.0;0.23974325077677913;12.0;0.1905990844693544;0.036434586789519;141.0;0.22038493063852863;0.18534602461166388;0.03445662197115425;151.0;0.20987306262052793;0.1798847043641926;0.032452562681933896;149.0;0.20498300940556138;0.16253319519534934;0.026499929622323143;150.0;0.19752850343714437;0.1451380380613262;0.021128437123370956;152.0;0.19259378713639058;0.13420142263131943;0.01806122989959371;144.0;0.19081638893368594;0.20873281769206783;0.043696031022783625;155.0;0.2441130820133661;0.13277616608957818;0.0176766075448373;143.0;0.195953642932631;0.14047189352687534;0.01978345384533826;149.0;0.2072849922397906;0.13741403954273618;0.018940619120311496;148.0;0.21898745527289631;0.126194976016151;0.01597692805976181;152.0;0.21813426864440794;0.12755301917383927;0.016322477373050433;159.0;0.21784101875905798;0.13464127789880845;0.018186435676406817;165.0;0.2173134233120846;0.14735376486099805;0.021778129323970358;159.0;0.2195249486005856;0.1292117078755076;0.016736502806488023;142.0;0.19068196486441888;0.01223139587710914;0.00015004572743591737;149.0;0.06901711831384424;0.013175165958766284;0.00017410513894198436;159.0;0.07062345322887716;0.012830895416054387;0.00016502263658116744;163.0;0.07007544798831612;0.011247154821256627;0.00012659545241125008;177.0;0.06436175524439804;0.009932583532492918;9.85119570290819e-05;180.0;0.05926125714568295;0.009043368761071608;8.173630303000414e-05;175.0;0.05711122234077618;0.022023691341903035;0.00048561335943222365;158.0;0.09054425768582347;0.009245035549077728;8.555653944097322e-05;170.0;0.0612583434608726;0.008733028780762557;7.633957088999748e-05;161.0;0.05786338126590675;0.008291129559642925;6.882725693722961e-05;164.0;0.05540614989750039;0.00883374003012167;7.810226428176916e-05;158.0;0.05683650613564035;0.009722498428248585;9.463563741480776e-05;164.0;0.058429945994506;0.009438426200457206;8.912970838317119e-05;153.0;0.05791352668455564;0.01037560430457264;0.00010784450479112335;168.0;0.057823865835623794;0.00896018141737113;8.028570426746312e-05;167.0;0.0561527470710097;0.008383120667383875;7.032665466873833e-05;174.0;0.055834080379777
0.17554997820778048;0.030918519195884304;141.0;0.22784706390748574;12.0;0.16338303044294464;0.026779985531421385;128.0;0.21030104580120515;0.15582018122016875;0.02434989752060611;138.0;0.19955123026390925;0.14742500263268107;0.021794904003970522;140.0;0.19576398983361082;0.1333627364657194;0.017835186708399037;151.0;0.19302045630807338;0.11964094566284689;0.014355970821186257;155.0;0.18887172546283423;0.11073836158160964;0.012300524686931916;152.0;0.18634302419033374;0.1702289397921313;0.02907248133805149;137.0;0.2311392074270927;0.11817847035001534;0.014005809517727142;153.0;0.19069725870360815;0.13104014140866654;0.017218462278177454;145.0;0.19856266317070562;0.12668552771957434;0.016101273944459937;144.0;0.2062624152983488;0.11562762790435921;0.013413252023517964;151.0;0.200212837131333;0.11380143496534202;0.012992136290261962;149.0;0.19987421360719784;0.11669247218171987;0.0136615011214017;154.0;0.20159104471618755;0.12559784620272316;0.01582641954979573;149.0;0.20482872334464372;0.11164020517115918;0.012497011774250758;141.0;0.18682639975641283;0.028206223971625546;0.000797535270163763;158.0;0.07575076607817388;0.031548310045979404;0.0009976170134168765;159.0;0.07939769322740686;0.03479500558558909;0.0012130223510004267;167.0;0.08165844851685797;0.03414213530034997;0.0011670268578179255;162.0;0.07668474413320019;0.033460672227104325;0.0011204847599241322;170.0;0.07279868569793696;0.03270974929749402;0.001070915474014881;171.0;0.07127096072312251;0.034830849982079165;0.0012128509678927548;163.0;0.0991467919161439;0.02466376199136728;0.0006096218215277681;168.0;0.0696803818167109;0.020483195815668917;0.000420633027580958;154.0;0.06360360734128401;0.020279940919417597;0.0004122451320128339;154.0;0.06103572759909386;0.02025370956686734;0.0004112648064526482;153.0;0.0632565097836173;0.020362764701559528;0.0004157918035954856;153.0;0.06485720707307568;0.020779414008826106;0.00043292426643418147;156.0;0.06431997074450402;0.021439000682641162;0.00046083939555824365;160.0;0.06476347645225375;0.021509082510903624;0.0004637166989635858;158.0;0.06343289110413229;0.02088292840009948;0.0004371309522826846;158.0;0.063142178746949
0.19785250203387947;0.03927209452122336;145.0;0.23269107869288633;12.0;0.1714210159662682;0.02947849028213899;141.0;0.21660654621800873;0.1516060331852159;0.02305808104944902;144.0;0.20491024350649784;0.13984567815195142;0.019616756026182923;146.0;0.20114568539412223;0.1273945465299919;0.016275189323352514;154.0;0.19914634575696785;0.11457717578021424;0.013162728243547127;156.0;0.19568324355194217;0.10488102265011362;0.011030848193194793;158.0;0.19299527111682305;0.20596952915015998;0.04256252630796346;142.0;0.2382849402272049;0.11026004820023809;0.012189354021621045;154.0;0.19368017912047444;0.1242725779394076;0.01548606854815563;147.0;0.20253174386829453;0.1257995354960583;0.015873494571664582;150.0;0.2095644522709425;0.11818095112399324;0.014011667204920569;158.0;0.20478885817868564;0.12130453950991538;0.014762981463823946;148.0;0.20451642993213592;0.1304046584362163;0.017061136716228713;152.0;0.2053580144126305;0.14752040457618917;0.021833407776698097;151.0;0.2094831272612881;0.10232252043367179;0.010498584181315884;149.0;0.1884696448721935;0.03188339358312249;0.001019158844827551;154.0;0.08254366744960646;0.034990984602593034;0.001228259316987631;151.0;0.08580704985728564;0.039125284020015506;0.0015357825555104947;145.0;0.08910300167764847;0.0404735356861772;0.001643438595004622;142.0;0.08513401425582781;0.04034249240410543;0.0016326856795964824;142.0;0.08196397379985304;0.03951353460721219;0.001566069979054956;143.0;0.08162913706347782;0.04145132918713928;0.0017223232745829855;155.0;0.10248017242823984;0.028715706600741627;0.0008269545856703395;144.0;0.07872840530332255;0.025590780786129596;0.0006570220206212632;146.0;0.07453923311460169;0.02494696247229336;0.0006243539862264044;139.0;0.07331442649651314;0.024474003091830104;0.0006009192488805851;144.0;0.07395478975079947;0.024389123701376674;0.0005967738512027396;136.0;0.07438907231567247;0.024320150677791547;0.0005934033435345077;140.0;0.07446616954306826;0.025189320311946338;0.0006364996986154176;138.0;0.07583771677362494;0.025429132754578188;0.0006486610819937993;134.0;0.07488849837405087;0.0263894163586473;0.000698657509559702;145.0;0.07503388937278739
0.1668440243810848;0.027924469244442186;158.0;0.23035078968475756;12.0;0.13894216458860165;0.019358353262598164;148.0;0.21145188658506897;0.12128998328924563;0.014748478663164458;146.0;0.19760448768394717;0.11443181965174394;0.013129100619261157;146.0;0.1929819090711151;0.10541505904317187;0.011144983568082845;148.0;0.18691111748045283;0.09363781606924734;0.008792194094449549;146.0;0.1810842884546421;0.08434673984621531;0.007135496175441155;149.0;0.17832613818943788;0.17686288498800307;0.031382726433558564;159.0;0.23134513296294063;0.09767519542221267;0.009571284520618601;149.0;0.18280178246532988;0.10689310514686103;0.01146258591531488;147.0;0.1913607495324023;0.10622033806332734;0.011318077827685204;151.0;0.19753223645102683;0.10131531997206661;0.010297068717712672;150.0;0.1977694919269;0.10338305182523949;0.010722794972677314;142.0;0.1978538125388019;0.10983326086885191;0.012102568685670785;144.0;0.19535397571118723;0.12370802005401026;0.015353483117388744;146.0;0.1975148234054125;0.0853448354236348;0.007307584929282357;151.0;0.1753299987378115;0.08103968713026911;0.006587541932963913;140.0;0.15186246342046544;0.0861517299371955;0.007446539036833205;142.0;0.15562386390674054;0.0888226250423073;0.007913861056009082;138.0;0.1557847377161813;0.09709980312402128;0.009455117132014856;144.0;0.15078316332619282;0.10594555828930505;0.011254928369771346;137.0;0.14742545835515286;0.11007722956981554;0.01214977315221375;135.0;0.14560234088017665;0.10266945234603592;0.010569443940347934;133.0;0.136226570112934;0.0762434734870053;0.005831311897593401;140.0;0.14916459512193997;0.06558947701926515;0.004315971422493002;139.0;0.1388404602536548;0.06474064828288255;0.004205082850042984;135.0;0.13693191535763324;0.0647533143678754;0.00420664954006392;137.0;0.1364743685826417;0.065306840270977;0.004278905937265346;133.0;0.1374761994271377;0.06720353456064514;0.004530840395153318;136.0;0.1400415124708913;0.08341188598358881;0.006980060999172218;135.0;0.1518008061086976;0.07856482843299994;0.006192407813217235;136.0;0.1483359278472971;0.06598646722104823;0.004368212418093857;137.0;0.139396392643977
0.11042538669416627;0.012231028681936899;159.0;0.21082547176500618;12.0;0.10545596998960638;0.01115591145272324;144.0;0.19716565210195847;0.10605913374791275;0.011285348839923173;146.0;0.18849919825603845;0.1064937761549691;0.01137782459616704;150.0;0.18552567405385814;0.0973303207551892;0.00950379544640184;147.0;0.1758074277316848;0.0849173158136168;0.0072343012054226045;144.0;0.16834834619356856;0.07588691319239768;0.005777499396150505;145.0;0.16501660950036817;0.11314879996506019;0.012843528631146827;156.0;0.2135847477025716;0.08974176648493197;0.008079477219653176;151.0;0.1719502913878797;0.09735553772823312;0.009508717227652437;152.0;0.18292883028421267;0.09926790606853803;0.009883913597241759;148.0;0.19208699811974303;0.09194998513891457;0.008481615794189965;147.0;0.19442243821762437;0.09022489040635669;0.008166987643603638;144.0;0.19313330837478193;0.08646259955128034;0.007499855412844569;146.0;0.18980408877494404;0.08467244479490779;0.007191239780997721;155.0;0.1890280820553948;0.07824858256659314;0.006142651401421004;144.0;0.1664018824741635;0.11897375770446875;0.014195284889882422;134.0;0.19819818139809983;0.12805659248544918;0.016443156029353433;138.0;0.20325020089497647;0.13689706808600005;0.018789602456243885;141.0;0.2058870049310522;0.14795167492327782;0.021942411636384662;150.0;0.20335692315172774;0.15581468290200248;0.024333875542989984;147.0;0.2007433636440967;0.1577536417148587;0.02494872165013518;146.0;0.19874213976222782;0.13677168177097773;0.018751298184634127;140.0;0.16665874206375353;0.11480788629566645;0.013215126547297448;139.0;0.19682044752669478;0.10427293086480598;0.01089899232770664;140.0;0.1870098531816484;0.10324894730094236;0.010686532404987608;139.0;0.18542736437115442;0.10450264707413659;0.01094751872103989;144.0;0.1856755223075604;0.10689710191574528;0.011453606383277049;143.0;0.18653172901455692;0.1106956076726959;0.012276261304187184;144.0;0.18796377112113682;0.1271897033494884;0.0162006659003209;143.0;0.20006861905348405;0.12210605537228725;0.014935932276175118;149.0;0.200203415596635;0.10496406103645174;0.011044728442697637;137.0;0.18695665839277792
0.10615650638883856;0.011304228267626061;166.0;0.2007112454181967;12.0;0.09612990347262658;0.009271036767509965;161.0;0.18591311206629932;0.09343576558809677;0.008758364417625591;158.0;0.1761263226564093;0.0915564044797027;0.008409214025076647;153.0;0.17214597987686409;0.08048174344974185;0.006498120603515314;148.0;0.16171574850376016;0.06893640941663534;0.004767560200844072;142.0;0.15499158018003542;0.061374555563664036;0.0037788745306675674;141.0;0.15015478865724147;0.11173532421930579;0.01252440455752176;159.0;0.20832931536652868;0.07611816635448514;0.005812120452569997;144.0;0.15946671596530784;0.08859524577388561;0.00787435915576504;141.0;0.17379449736814387;0.09504623971884611;0.00906342894802066;140.0;0.18447835926787048;0.08281873797302637;0.0068813308821498295;147.0;0.1819218054491192;0.08212814993235648;0.006767099402581579;148.0;0.18053480162719293;0.08146764439585834;0.006658582479923439;151.0;0.17815089496818917;0.0847705122940408;0.007209527285280045;159.0;0.18004862822908724;0.06845459656600172;0.004700887180932654;143.0;0.15295216550365082;0.12618455562763578;0.01597337905039556;155.0;0.1990652899875447;0.13291712667048422;0.017724754448293325;157.0;0.20265652704201123;0.13635914193885706;0.018654444485690702;157.0;0.20464254725376932;0.14118941501377796;0.01999771436161914;161.0;0.20233021928456071;0.14507114157101297;0.021111022810094235;151.0;0.19928008439612938;0.14657879814445968;0.021549641831162446;152.0;0.1978811427857673;0.11572048623332512;0.013431203639512092;158.0;0.16602304650059566;0.11986727455530903;0.014413657560167152;153.0;0.19677470905228137;0.10752050575823242;0.011597619872779071;153.0;0.18308707146225783;0.10644662736752215;0.011367548458238357;156.0;0.1827899421019577;0.10803504222405988;0.01170966327564496;156.0;0.18424226077979797;0.11040970597560888;0.012229988588671756;155.0;0.18569981660004292;0.1155922490367668;0.01340518705243737;149.0;0.18712921425000753;0.12943345842560072;0.01680737113835555;150.0;0.19543274455772952;0.1257915835462566;0.0158743462758802;153.0;0.1996204520403061;0.10767366786629613;0.011631457769881677;153.0;0.18193980485177333
0.12253340993721316;0.015063460214635902;163.0;0.2096137944213824;12.0;0.11132761460933038;0.012434161279736764;164.0;0.190250123242467;0.10656262206078328;0.011392728692039852;158.0;0.17848826826859046;0.10143219776219457;0.010321846728243132;141.0;0.17331153221422968;0.08901148563189987;0.007948613621606038;141.0;0.16423182409210074;0.07748762267070441;0.006023946361151783;139.0;0.1564887692359523;0.06984031747355991;0.004893522988679696;140.0;0.15180953490197055;0.1269627702579956;0.01617221920869657;162.0;0.21366887254995023;0.0733330640333545;0.005395132152887404;145.0;0.15825384010880444;0.0914068033073199;0.008382505993959078;137.0;0.17724994618798082;0.11109866870876811;0.012383156483344001;137.0;0.1936784258616361;0.09881354723559044;0.009796162605662033;138.0;0.18359176266297453;0.0921801510163308;0.008525130428354951;141.0;0.18160846195739122;0.09007600486457432;0.008140195440089105;142.0;0.1787298311691989;0.09385002477869742;0.00883530750499974;148.0;0.18158644802491009;0.06828279398032086;0.0046769241606014166;147.0;0.15183286445394714;0.11253909314214301;0.012694703060834353;174.0;0.1949428855115693;0.11919283272595933;0.014239375649982;177.0;0.20079347560994365;0.11821490691054588;0.01399918115891301;170.0;0.2016423835241203;0.12090991614371312;0.014638518924653733;168.0;0.1981709446969225;0.12368621006905103;0.015323011955728175;156.0;0.19518745550435074;0.1244527032646676;0.015523857002332475;153.0;0.1923169770641307;0.09347927385818852;0.008759820736980575;160.0;0.16372032059488248;0.09982964334521427;0.00998926236473562;170.0;0.1868235849706773;0.08648889274651542;0.007496376869780484;169.0;0.16850912677063487;0.0854897052994088;0.007321174140701691;174.0;0.1676482433229119;0.08618687975412079;0.007439587833264711;174.0;0.16879419076416813;0.08845043862140055;0.007836002872731321;166.0;0.17057876744215322;0.09352073306412488;0.008748176543488757;159.0;0.1738276902879581;0.10553001398489166;0.011135056938123486;159.0;0.1825063174137409;0.09953203163845352;0.00991421865681002;164.0;0.1834092388288625;0.08623359442867584;0.0074479264602253055;172.0;0.16764966580314195
0.12964244428036814;0.016861149280309715;160.0;0.21303957431609638;12.0;0.12656749999305242;0.016068575731701413;154.0;0.19929957459513084;0.1276076234806976;0.016335537657336818;153.0;0.19288636982228563;0.12413871105237331;0.015460549409510955;144.0;0.18864148511091353;0.10961322866259045;0.012053543198216271;144.0;0.17864100980133324;0.09447770877347975;0.008954848445902735;153.0;0.16705385846930845;0.08399940052340028;0.007079044924096709;157.0;0.1613398166974946;0.1308746315996854;0.017183733240675833;165.0;0.21678780996133348;0.07890295927858314;0.006246099143531269;155.0;0.16505797197855576;0.09035018813894544;0.008189625605615447;160.0;0.1795641149354179;0.10554813576137467;0.011176578793404973;154.0;0.19116756941211058;0.09794563318882521;0.009624248142215092;148.0;0.18530735558905487;0.0954632999257705;0.009143063315866319;148.0;0.1873889177163905;0.09395550807089018;0.008856467631482127;148.0;0.18777779463318783;0.09471537231993492;0.009000529708195893;155.0;0.1897532100374607;0.07279340998785636;0.005316273175242445;157.0;0.15878803574415695;0.12236154563470215;0.015020236769434701;163.0;0.19789652135993818;0.1369158682191056;0.018806150468720976;166.0;0.20819324125450805;0.1509164120774109;0.022848621940554925;157.0;0.21420267542960086;0.1573838897563103;0.02484712292351775;157.0;0.21059994346036642;0.1520529753406957;0.023193784177105402;158.0;0.20431290294207;0.14260245388723553;0.020401306130232038;157.0;0.1982309824973018;0.11133460935763581;0.012435836291854659;152.0;0.1674224934305415;0.10830199966840173;0.01176705225847026;161.0;0.1881535186403215;0.08791566676930777;0.007751998250285634;162.0;0.1699423597375894;0.087207066783029;0.007625499858083688;164.0;0.16892102897080383;0.0873552097356467;0.007651162594198434;166.0;0.16940885551236817;0.08936981846920494;0.00800907478440209;157.0;0.1713233652305194;0.09539055186472023;0.009126981745688387;148.0;0.17697434811971627;0.10414785317473853;0.010881539850239492;147.0;0.1838724583683992;0.1010035177570223;0.010233981339561625;154.0;0.18550134671746885;0.0885212431755228;0.007857298492572098;161.0;0.16991351896963908
0.26210222614143935;0.06891336500998167;157.0;0.2591826468996842;12.0;0.2385803254266102;0.05709153416099909;150.0;0.24337688624741016;0.22680925644355115;0.05160689100001725;154.0;0.23143669989011265;0.2150768363978146;0.04641095824393685;157.0;0.22249029359449854;0.18420665644638462;0.034041835785976804;149.0;0.20800185310908564;0.15648250810321163;0.024561360476356174;155.0;0.1946002245331296;0.13893843334082015;0.019360989454043315;159.0;0.18736071022962913;0.25092586403015277;0.06312113618167439;160.0;0.2607106737057553;0.17817005261311453;0.031849473902893964;166.0;0.21352816476303882;0.22937088621189952;0.05277960938672973;170.0;0.23809024012936889;0.2529032613448786;0.06415850206830413;168.0;0.25165096742373944;0.19709266414726753;0.03897261537346739;165.0;0.23072688070767225;0.17999263990975137;0.03245658548134789;160.0;0.22432390362540142;0.18565626317412137;0.0345179997499333;157.0;0.22674068987494223;0.19347477271275237;0.037494235643388996;160.0;0.23115014296158837;0.1503115845312048;0.022658428853749017;171.0;0.19557171085913416;0.23979559442293727;0.057684179827080885;141.0;0.2467874633959808;0.2542128383969768;0.06483003985666823;139.0;0.2516809827375745;0.25978087248095716;0.06770582698782818;137.0;0.2523255615952532;0.2537144379971111;0.06457826702851585;141.0;0.24178422325796256;0.2479815973381967;0.06169504756427252;146.0;0.23333993755520405;0.2460952507001873;0.060758425436128735;154.0;0.2326228903102654;0.1893480885311493;0.035954190572591416;147.0;0.19688777904951754;0.21627761442115498;0.046924621837341085;141.0;0.24119994943886816;0.15840826514402687;0.025169604471704226;148.0;0.20760170977699835;0.16018691404404792;0.02573772949009454;148.0;0.20768580958746674;0.15980501211304976;0.025608668025202164;152.0;0.20891158230207313;0.16412837969622723;0.027008940372749674;149.0;0.21090816123255324;0.18074815788015916;0.03275945867729396;136.0;0.21771611529474796;0.20387282159246262;0.041697363918338594;132.0;0.23100315618394443;0.20231693986789814;0.04106214869404185;136.0;0.24412773361910112;0.15524384452077233;0.02417072902442613;143.0;0.20661223469571158
0.30219544503646667;0.09158655980732637;144.0;0.276084106142838;12.0;0.281220938856498;0.07926931342496996;142.0;0.2616886317024283;0.264462156706869;0.0701157410805052;151.0;0.25088675677401584;0.25084917996230366;0.06308391931151187;153.0;0.24469927665561023;0.21872562742538043;0.047953660248017504;138.0;0.23195029681728419;0.18965859854655484;0.03605605307121061;143.0;0.21916395564380275;0.17179384059514757;0.02958533731599757;144.0;0.2109556555959286;0.29165481725538345;0.08531449989669092;141.0;0.2780651097371776;0.23229415881002188;0.054101001307800795;156.0;0.24032312999399816;0.28299135958438626;0.08030293858528242;148.0;0.2657425350091578;0.29853025091906876;0.0893953047253348;152.0;0.28211613052790974;0.23531807546883346;0.055554300862266905;158.0;0.2609460086398715;0.21932922669343416;0.048262904990970176;154.0;0.25186217478715883;0.22640204912586084;0.0514236072787652;152.0;0.2518917552265654;0.23532425066465676;0.05554705111195308;147.0;0.25431869088811954;0.1963441314615075;0.03864460889093295;156.0;0.21992189351118732;0.30833210697204233;0.09537908703440776;146.0;0.2784951833006324;0.32413527385990826;0.10540443007618018;144.0;0.2834786327768692;0.3146704506144722;0.09934056387750798;143.0;0.2773949411180051;0.3002525146861644;0.09043759465863214;147.0;0.2639728810365251;0.2919301625183482;0.0854937219011945;150.0;0.2561456617738874;0.28972075659228247;0.08420298847435083;158.0;0.25779820775276113;0.22454102715933164;0.05057982184455757;161.0;0.21670156514442643;0.26098292308197146;0.06833457423957455;151.0;0.2672016679795323;0.20402028181754692;0.04175975725282304;163.0;0.23508607118141844;0.20911462972222208;0.04387182331450064;158.0;0.23637222730956642;0.21336112912203214;0.04566424006317602;160.0;0.23710669468462942;0.21604532892757003;0.04681120923199611;155.0;0.23743365337874275;0.23025550460803892;0.053180893497670474;146.0;0.24164056184851196;0.2648634120543632;0.07037275528079655;136.0;0.2563710536948707;0.24501873971683738;0.06022567999622665;143.0;0.26457920615279434;0.19472492396091065;0.03804133819092336;164.0;0.23121818353976917
0.2401123368635181;0.057790302307316306;148.0;0.25752943040030424;12.0;0.23111974275908903;0.05356484787815581;151.0;0.24361659370392957;0.22251922320054096;0.04964271118572033;154.0;0.23319370896054373;0.21475601487569762;0.04625270079404717;149.0;0.22883670295118033;0.1913379535487994;0.036710941739137117;138.0;0.21869859774488762;0.16641567689034956;0.027766460225940193;144.0;0.20725711095731103;0.15120444298475375;0.022919736077353172;149.0;0.1998474955754756;0.24103013097226425;0.058187111482134825;141.0;0.2615197867690882;0.18814744518823764;0.03549055746775236;155.0;0.2116945991872743;0.20221012231591365;0.04102270239065587;155.0;0.223243499318415;0.20097300546907404;0.040520912649798534;146.0;0.2338902236763912;0.17759197045105446;0.031623684802974596;152.0;0.23201865955844692;0.17660544104424533;0.031195970376947713;152.0;0.22957646365466336;0.1818040609907747;0.03304478230827615;149.0;0.22759459305168345;0.19188708685729286;0.03683556412319155;148.0;0.2294909694462761;0.16538790468332304;0.027411458416456008;146.0;0.2007576831878774;0.2366763943819468;0.05619875852826669;158.0;0.25308427952048745;0.25061007488845094;0.06300348878725619;164.0;0.2612809485466602;0.2425498400425995;0.05901111027963124;163.0;0.25809811464486415;0.23531142179104908;0.05554350765905504;164.0;0.2504963196912395;0.22452406904906133;0.050572792309609885;163.0;0.24168085181277;0.21418852086990572;0.046025507450725534;159.0;0.23714445757569408;0.16417778815524722;0.02704005845235388;164.0;0.19572667259857052;0.19149764374963582;0.03679150217937767;166.0;0.24112766342598324;0.1647074673944355;0.027216953391400796;164.0;0.21840192954594484;0.16842088374211256;0.028458404481356194;162.0;0.22041595195744684;0.17030692422159954;0.029098394970912284;166.0;0.22129327001329357;0.17049020672413812;0.029160239491463655;165.0;0.22564759005687166;0.17774407129249473;0.031696487683597736;161.0;0.2296351673491287;0.20843403405537614;0.043586630793711084;156.0;0.2384711902310879;0.18419970701651533;0.03404040520674775;162.0;0.2369643140932083;0.1538607195967481;0.023750262529635198;169.0;0.21323309659209763
0.1851025700441632;0.03432046423915071;152.0;0.2310298772186249;12.0;0.1729928281945834;0.029966541337274704;159.0;0.21421271481276646;0.16770556133637537;0.028178214089583178;148.0;0.1998212952877655;0.16092428409446213;0.025952665191397602;140.0;0.19197033846710018;0.14110534051233953;0.019948750059051928;138.0;0.1822656096260448;0.11955798548940041;0.01431472276750072;142.0;0.17349520229594287;0.10653438011234806;0.011367615937952552;146.0;0.16970756604340279;0.1853167300198323;0.03443011860054622;150.0;0.23529873455033268;0.12167984226263981;0.014808797838740714;154.0;0.17975246396476216;0.13073043971623113;0.01710533596200231;162.0;0.1922482637116955;0.13821849764861086;0.01915270785347227;150.0;0.20178742238454153;0.13243918106691438;0.017595281989833338;151.0;0.2012626141991588;0.1313091750657863;0.017297569769036337;148.0;0.1997005564283578;0.1321613639709978;0.017522946306163523;149.0;0.19634825969945305;0.13745584301655148;0.018946067377980567;150.0;0.1955681568756642;0.11056559368665665;0.012234685851585022;146.0;0.17091646498747795;0.12423720022845118;0.015484971913469144;157.0;0.21390584868643409;0.13525818798993314;0.01835271005772543;166.0;0.22196114596414934;0.1523339663541291;0.023278053170938406;167.0;0.22774403547811822;0.1679169425206339;0.02828738964285184;167.0;0.22830286834712418;0.1690486129452599;0.028670680308571325;170.0;0.22474293496522008;0.16388126259195954;0.02694390574716494;162.0;0.2214638806288665;0.12028296066425771;0.014513419810892563;163.0;0.18252799092002742;0.1176780751731155;0.013893317677462352;163.0;0.21117156768529038;0.11238292835287897;0.012630523301944075;157.0;0.20089877999293063;0.11272149710321791;0.012697484995675275;159.0;0.2014807925159881;0.10737131899077461;0.01155139761915851;165.0;0.20041968202894614;0.11118997390787595;0.012402894916888337;170.0;0.2054353102804561;0.11744245769104515;0.013835759109858046;168.0;0.2104842890417607;0.13363574619737115;0.017916468734752264;168.0;0.21779376192040475;0.12606705876548988;0.01594449282804847;166.0;0.21556443222229985;0.10435870329186991;0.010910246565299713;162.0;0.19600563588567196
0.1168271395255194;0.01367561943015413;149.0;0.1983818024669223;12.0;0.11227539867410904;0.01263895902344982;154.0;0.18630094387262308;0.10269075649372131;0.010571284473634038;151.0;0.17445693858602068;0.09360391781390029;0.008781475865060864;151.0;0.16652424926797982;0.08096629301846685;0.006567161899032468;153.0;0.15884268226471687;0.06813677293790774;0.0046547741629557006;154.0;0.1532330982724126;0.06065198204882914;0.003687529185406801;152.0;0.1508023851456526;0.10956172773238268;0.012025394495064302;149.0;0.19997189556125985;0.085293914392652;0.007277606645813402;149.0;0.16742458898124032;0.09933457444373049;0.009874316015579808;151.0;0.1805188296652978;0.10730794986016493;0.01153989388655462;156.0;0.18968728970098434;0.09613310726111204;0.009263209862162199;160.0;0.18580740813731794;0.09435129229335751;0.008921644583984532;149.0;0.18402469728349982;0.09160889750272602;0.00840618414386835;154.0;0.1795916823172761;0.08557210304974486;0.0073344493208483096;155.0;0.17568612778110054;0.07398667464812567;0.005474377374949337;148.0;0.1594657136183475;0.13010774857694973;0.01698346222214258;158.0;0.20476418776502064;0.14452306021145872;0.020955572505351416;161.0;0.21547212830622176;0.16289315232399454;0.026621334006819267;159.0;0.22281216550923344;0.17472912896852233;0.03063049734211792;157.0;0.22216666588412473;0.1736503581560615;0.030253259044356544;165.0;0.2180689594774864;0.16937406721269613;0.028781221748778306;162.0;0.21552484786959353;0.13107310864007082;0.017236383330175863;162.0;0.1802095880776159;0.12044723415265914;0.014555607670711476;154.0;0.19844061430201013;0.1042553270576523;0.010904913121419064;163.0;0.19458369746339194;0.10661163107365522;0.011403165917172591;163.0;0.19332844337018557;0.1082838273778651;0.011763941976215568;171.0;0.19235998147645447;0.11311605236727558;0.012837159278871284;169.0;0.19315715146221676;0.11607974816043473;0.013516641914456569;162.0;0.19488682327778803;0.13035658928193294;0.01703932702868224;156.0;0.2041534582330652;0.11973844706589845;0.014381490827847005;155.0;0.20222485853015407;0.10009207816790257;0.010050076774182218;168.0;0.19228181927126461
0.10374578993567275;0.010797363137935185;153.0;0.18775806371907997;12.0;0.10422403861095618;0.010894926885999877;151.0;0.18145769983082344;0.09510911603775501;0.009067523563232833;153.0;0.1708067312893662;0.0840253668710638;0.007074843095418364;154.0;0.16015286636217146;0.07096156705472464;0.005047326506015485;155.0;0.15188064426157655;0.05999296567547349;0.003608824999219385;158.0;0.14722448885136685;0.054063589346812616;0.0029309644585346953;164.0;0.14387885286013768;0.09552221487963654;0.00915368376849673;151.0;0.18790602343437135;0.06927726374530746;0.0048141832291493354;154.0;0.16117376386017768;0.07746973193675824;0.0060206422041037;153.0;0.171599746557802;0.08280718401776709;0.0068782370492274855;165.0;0.17890697742226797;0.07416785990482054;0.005518246016247875;166.0;0.1749128040955139;0.0742540178134856;0.005531489685349284;157.0;0.17597846759779726;0.07421710372947297;0.005525531210957425;157.0;0.17338766696613606;0.07362148483393074;0.005437850854840837;159.0;0.16963140609525493;0.06319319449811643;0.004005678557845473;159.0;0.15348002288018256;0.12607872420729682;0.015945212558501638;148.0;0.2052946837004044;0.14303107103863694;0.02052064021502071;160.0;0.21750336267658116;0.16105481905317007;0.026011330320304005;158.0;0.22781525272115966;0.16318675966576837;0.026710085205797988;157.0;0.22294412272300412;0.1536763657160093;0.023689626014938337;153.0;0.21361156410345963;0.14471160764830027;0.02100578724683866;151.0;0.20722857552446056;0.11419533628256592;0.013082162716685464;146.0;0.17177269155352115;0.10974579583223763;0.012079418774229755;146.0;0.19566340479121988;0.0906288182399302;0.008238297783967353;153.0;0.1854457769065905;0.09444371915076176;0.008945352549591595;153.0;0.18656888684287218;0.09565409741177458;0.009177973867340908;164.0;0.18671628862002673;0.09936778001376086;0.009906200145495172;160.0;0.19068865914914232;0.1019391300180992;0.010425576186701363;154.0;0.19067433505663167;0.11073092303022374;0.012300571633339794;144.0;0.19622284272215515;0.10506296763920818;0.011074339038499885;148.0;0.1980003978229736;0.08759421615604075;0.007697139458025937;150.0;0.1836737649605239
0.10187914868727023;0.010413223085347941;160.0;0.1768857093041369;12.0;0.10476117348974068;0.01101039552507861;152.0;0.1766034400692878;0.10057029883372405;0.010147392703535228;151.0;0.17113873848526925;0.08986167812282375;0.0081014497359069;150.0;0.16299726817698165;0.07705665694039424;0.005956752324942712;145.0;0.1563312669328275;0.06553384728355771;0.004308158712914969;150.0;0.14927059888577043;0.058840749631929375;0.0034734593697714894;156.0;0.1447626413989178;0.09308890005170346;0.008693822112987708;159.0;0.17496696914852441;0.06724218773284454;0.004536244350037304;142.0;0.15835796138584735;0.07278995881039087;0.005315681333524188;151.0;0.16593392879887728;0.07544572214005014;0.0057108043317226145;155.0;0.17129190453492474;0.07244475107545834;0.005265107860761436;161.0;0.17136011202711565;0.07410072863996303;0.0055078196359622696;158.0;0.1727939178920913;0.07402607849382727;0.005497407046971028;159.0;0.17006744217314554;0.06840362552680543;0.004692875249242132;155.0;0.1616439528189319;0.06352327639795743;0.00404819215445271;145.0;0.14810873552489384;0.1255037251681311;0.015796549453473613;141.0;0.20055009790438827;0.14480200006077248;0.0210247627641044;152.0;0.21077445663782432;0.16187754239473956;0.026277826474934568;155.0;0.22078816970287157;0.1638032626725989;0.026901538895010325;158.0;0.21414171533505344;0.1536059928975235;0.023661209694011188;150.0;0.20522023133115858;0.14457049716540737;0.02096028634460244;143.0;0.20052530138483743;0.111949434138224;0.012566453705852104;136.0;0.1698917853107726;0.10531035337111738;0.011125320667244323;142.0;0.19366832201866518;0.10594295927738737;0.011259915231514064;142.0;0.17725858193568175;0.11186230480799655;0.012552954421723583;143.0;0.1823655617432509;0.10432065575995347;0.010916998153342277;151.0;0.1849265880569708;0.09748816638348187;0.009527246414665078;153.0;0.1885426352805981;0.09332482177934424;0.008725161170735726;150.0;0.18668567184086046;0.09476151129927847;0.008986005556780996;145.0;0.18922091228156215;0.09370320082897829;0.008800633270753857;149.0;0.19033060612022085;0.09300230479765359;0.008677445719966061;141.0;0.17201726873686862
0.10529076635878402;0.011115957940230636;158.0;0.18233154420486872;12.0;0.1055136560743116;0.011166581074276146;151.0;0.17897685160102839;0.10413281808543594;0.010878730364721076;155.0;0.17341160119534385;0.0988784668652483;0.009808984865242188;156.0;0.16912912032227478;0.0892672983756398;0.007994777579091124;152.0;0.1637468595096458;0.0777144520175317;0.006059349853390207;159.0;0.15693778174761014;0.07077110929986269;0.005024875537899621;156.0;0.1533276048829576;0.10263927546210179;0.010566169784499499;158.0;0.18260725023866467;0.07998132459285212;0.006416280426695339;146.0;0.16225194015205424;0.08598200194936817;0.007413129110432075;149.0;0.16854444113326209;0.09951275260569059;0.009924627597639681;145.0;0.17801998451579476;0.10243243075811362;0.010517068742157002;157.0;0.18618580270835813;0.11304138728513637;0.012806475163400522;163.0;0.18955116855806023;0.12508628048187698;0.015682696725773767;162.0;0.19009298981662046;0.10843874094096155;0.011785813574628325;155.0;0.18118466101526712;0.07861766829583249;0.006199297329820881;140.0;0.15661305499908568;0.13572143326893973;0.018480323102748098;143.0;0.20312800218455715;0.15006020259781214;0.022591672275327625;140.0;0.20988423576771842;0.15932252654339116;0.02546525234185419;142.0;0.21490976654419655;0.15772488867484394;0.024953493081215694;144.0;0.20635198763173018;0.14624449693867125;0.02145394530364048;153.0;0.19564368927966977;0.13615158172639832;0.0185946485974569;150.0;0.1904644387183053;0.10490095581131065;0.011038025516889602;144.0;0.16360254038947294;0.11230487925384025;0.01265295972812614;144.0;0.1952460324846945;0.1003150412973206;0.010095317323957654;141.0;0.17526531613078453;0.1069380733374479;0.011473053540086733;144.0;0.18026059094411587;0.10300567079979597;0.01064484221771998;144.0;0.18642962212494135;0.09616794033462224;0.009278250726123453;146.0;0.1874063773185461;0.09052773435178925;0.008222074412677634;146.0;0.18462762870291038;0.09541041516950474;0.009130476329627104;146.0;0.1883588697113345;0.09381886646745712;0.008829921074747333;148.0;0.1886630729551212;0.08851273711070327;0.007859546628418604;150.0;0.17099564564261377
0.11510124760757336;0.01329133687491466;145.0;0.1966274514217673;12.0;0.10910909027383267;0.011943350236574325;155.0;0.1897721019755273;0.1091183569646268;0.011945639253267347;163.0;0.18406170177028208;0.11020409447605359;0.012184495337893588;158.0;0.18157347789444958;0.10200062730727515;0.010437932059957558;156.0;0.1749064505419796;0.09009671409817226;0.008143192518520567;154.0;0.16730466509632125;0.08254932239096162;0.006835356375634136;144.0;0.1634249877284416;0.11833714712809265;0.014049302238868164;150.0;0.2005284777683633;0.09285872018942938;0.008650751577018301;157.0;0.17435041945021698;0.10889376628080838;0.011895365192416595;154.0;0.18795462061105941;0.13371374283277015;0.01793426292508902;156.0;0.20195058186715287;0.13521716205010845;0.018343030965896394;159.0;0.20878280193877083;0.14745866015567335;0.021815249208110423;165.0;0.21532609465640187;0.1628627550567387;0.026611283674744406;160.0;0.21891187491296285;0.14548977478024475;0.021236260733350987;155.0;0.21242764342245377;0.08599830562117787;0.007419656698676779;150.0;0.16473551955311785;0.12170718071243591;0.014855603916035553;150.0;0.19619442492739425;0.13097879701252835;0.01719982659920042;149.0;0.20245142363639596;0.14241705991413048;0.02034388273064485;145.0;0.21049876552953112;0.14591861733129718;0.021359972532417552;150.0;0.20522872307851825;0.1399906694436173;0.01966022271402695;158.0;0.19644614171618122;0.1335113439144497;0.01788254163895605;156.0;0.1925807766821916;0.10090576799951816;0.010215260547833336;151.0;0.16278828258197953;0.1042584881316318;0.010904350852811572;158.0;0.18837572243599926;0.09363311713181154;0.008795828232846116;157.0;0.17336567897638402;0.0971358537512636;0.009465982906823362;159.0;0.17711804863001093;0.09651075741556134;0.009342463259116095;152.0;0.1835958649328612;0.09453714180976915;0.008959963517029747;151.0;0.18661901800976305;0.08967568275689607;0.00806042004035666;152.0;0.18316561843770068;0.0931390518375999;0.008698194649727002;156.0;0.18667972865377733;0.09072814517573352;0.008257098902930448;160.0;0.18551614441611847;0.08817195562353766;0.007799716595489194;163.0;0.16979616575784948
0.11348903496428546;0.012920508817244873;152.0;0.19529540610520638;12.0;0.10449615535509235;0.010954090928795073;168.0;0.1868457862918847;0.10001658551789457;0.010033072021116028;173.0;0.1783727463979897;0.09841450641216272;0.009712173948640272;169.0;0.17446375800164063;0.0919850734577861;0.008483371749206018;165.0;0.16923473831600416;0.08334501700612956;0.006966560963489425;156.0;0.16359289444856878;0.07810176194696557;0.006118364297662942;144.0;0.1610023238508274;0.11737149349425054;0.013820801234966477;159.0;0.19828715836187136;0.09185385344173444;0.008462792848102347;154.0;0.17881310569173112;0.10536985683469549;0.011134179022301079;162.0;0.19104704385443627;0.12409276467369465;0.015442020591625876;162.0;0.201425249794311;0.12003753888862188;0.01443766419463382;166.0;0.20105449700555758;0.12728811700749512;0.016229730528139797;165.0;0.20549123852616627;0.13688198699330378;0.01876163551800585;153.0;0.20928926903379452;0.12605322299902172;0.015926330324261738;170.0;0.20568615009044713;0.07984521195727591;0.006393518670818992;148.0;0.16423897252180492;0.10663379447576561;0.011405670815899565;158.0;0.18071719683128254;0.1144586921610803;0.013142214384891023;156.0;0.18684582064942945;0.12985606627534407;0.01691539718451937;153.0;0.1954399789942581;0.1430535613349444;0.020530594966743355;150.0;0.196455558710596;0.14174325450949324;0.02015416822013066;154.0;0.19256548735013315;0.13696051772649048;0.018812090643322666;151.0;0.19201738956813844;0.10493525488953236;0.011035336888163461;146.0;0.1639060082891524;0.09714411330706754;0.00946532320302928;163.0;0.17635182011069378;0.09476132248322393;0.009004472696750015;160.0;0.1681499173929051;0.0965701337539722;0.009352611891855314;160.0;0.17135515983018354;0.0943999845159913;0.008935093441680997;169.0;0.17732283826366768;0.09302263578777142;0.00867639515576192;166.0;0.18226965828994107;0.0904607296982212;0.008207582258039844;156.0;0.1792944104304974;0.09195664985608996;0.008480420526316836;157.0;0.18055011102597665;0.08761462503261513;0.007698933145120124;164.0;0.1803973907964418;0.08911229029789364;0.007963106520495573;159.0;0.16319719196238586
0.15677450370474377;0.02465154621943559;162.0;0.18759388444488015;12.0;0.15430278466243527;0.023876197805051205;165.0;0.18517199021456932;0.15836392483498285;0.025141561395760407;166.0;0.18411766859704023;0.15439100762948674;0.02390432549568857;165.0;0.1822299256483767;0.13093164746494493;0.01718852450956871;165.0;0.1744718962433829;0.11222751652612599;0.01262776873703352;160.0;0.16818310579413367;0.10256117267743732;0.010544566969279186;159.0;0.16533358221667574;0.1543430252563535;0.02389535137279202;161.0;0.1892348787821042;0.1091236380275581;0.011946215754695214;138.0;0.18166198987981613;0.11804031724403834;0.013979033761967083;143.0;0.192554864681767;0.1278433803385011;0.016396863198210206;137.0;0.1996464712952708;0.1246118127851664;0.015578454084704799;143.0;0.19499635362886403;0.12521551087250032;0.015727706987382552;147.0;0.19241830180941752;0.1260863763824927;0.01594822812581647;141.0;0.19077428333272337;0.12424237296682548;0.015483751251868277;160.0;0.18556184686036323;0.10127192209062158;0.010289028761668052;144.0;0.17110331849374585;0.13245856820204893;0.017593219394699516;154.0;0.18979333534045528;0.14304223366175975;0.020516916522402628;153.0;0.19544161115128195;0.1554840942510009;0.024232668588110857;150.0;0.20143682402856652;0.167600686186603;0.028156815605978682;147.0;0.20416831100079022;0.16599405836003234;0.027627111199329486;150.0;0.2025180352967899;0.15554479011654945;0.02425550602472844;143.0;0.20006325696381075;0.12368266974652485;0.015314472372709545;140.0;0.1702489764197595;0.11963401956839198;0.014348918759550168;148.0;0.18715494270115604;0.1007692949093581;0.010177324337299462;144.0;0.1742685525099268;0.10024814409112132;0.010070661953629243;142.0;0.17482184125041328;0.09988405921468692;0.009995605895519887;157.0;0.1796226298863276;0.1010011846279598;0.010222933440853003;158.0;0.18346547835598043;0.10925294197390255;0.011969416013887622;152.0;0.18709695000795698;0.12378243862544534;0.015365413371980994;156.0;0.19222208967619978;0.11874604951934141;0.014138394677851033;156.0;0.19603115305475005;0.09887798480894266;0.009797650794419355;140.0;0.1717199376123444
0.19417078428119755;0.03781245661266977;154.0;0.21518172645495173;12.0;0.18266594977866676;0.033462933607439266;156.0;0.2047137616095102;0.18368207154975413;0.033846559036519376;152.0;0.20456436843363215;0.17689936556244235;0.031394356635087266;152.0;0.20196602706463615;0.1509583705590081;0.022860329676102832;153.0;0.19205998802193253;0.13216106650429116;0.017521015729253075;150.0;0.184482466780317;0.12173870083274833;0.014866606348391362;154.0;0.17970766086430634;0.19825305419733605;0.03941936458824516;155.0;0.2222865123521773;0.1330028080641968;0.017747758857463873;147.0;0.19352084928037117;0.1542168695462608;0.023861015806278873;150.0;0.21167461569801876;0.16998904932021683;0.02898961533974561;143.0;0.2211803274035486;0.15864424084098125;0.0252495876546889;143.0;0.21594423906059346;0.1546769642628832;0.024003197209162525;135.0;0.21150742673219788;0.15526171099610028;0.024184486966905082;141.0;0.20954933489907565;0.1586097611058767;0.025232118846890368;146.0;0.20788413951960633;0.12256669397675812;0.015070878909952791;154.0;0.18339113168673946;0.19009856709593026;0.0362553692502274;149.0;0.22547477131172494;0.20820751213856625;0.04349202560822156;157.0;0.23211133769435494;0.2139890606531555;0.04594077815561789;154.0;0.2345528831714527;0.21286582421848252;0.04545244063205315;161.0;0.23008111719991592;0.20814569920286674;0.04345300317333713;163.0;0.22708112480176176;0.19925195454802688;0.03982262514457663;160.0;0.2236426996879375;0.15860001689804004;0.02523516709331674;152.0;0.1890712327321903;0.16847947115584555;0.028477948717370326;141.0;0.22032701034336657;0.14304093124114653;0.020527589647278705;160.0;0.2032259542931834;0.14328748372971792;0.02059833159025179;155.0;0.20317347703472977;0.1450403528631677;0.02110480289189967;153.0;0.20559200701691607;0.14513483743885314;0.021132398206750603;152.0;0.20758584328108595;0.14883806561666155;0.0222203951429784;152.0;0.2130376580953375;0.16174371031122103;0.026237700305869017;161.0;0.22162348311376404;0.1604321858700071;0.02581970890714163;157.0;0.2260877808403276;0.13988802427810468;0.019632542833338647;153.0;0.20058794410097472
0.1620506757306478;0.026337597499322095;158.0;0.21891639827335194;12.0;0.14588265622208255;0.02132491291782072;163.0;0.19864247755355147;0.13784219812693982;0.019038703937592036;156.0;0.18951473560155443;0.1287849154983432;0.016626070676320725;155.0;0.18455753630106964;0.11371710247436895;0.012960084921300892;154.0;0.17873564858856347;0.1032205880296197;0.010678437391320654;158.0;0.17415356633665297;0.09696450171554231;0.009423388684394438;155.0;0.17101389029998224;0.17018474132707395;0.029048564368991645;160.0;0.22609403627019842;0.11659905102235989;0.013630590180935265;174.0;0.18466772208732674;0.1389797888511247;0.019368768528617922;172.0;0.19931522493640486;0.15711364619495854;0.024752856842756302;167.0;0.20986000831864726;0.13646168935043612;0.018669303532050374;167.0;0.2043584439506646;0.12778302469038108;0.01636774147622239;151.0;0.2025695745499414;0.13288688677882346;0.017706376697946096;155.0;0.20596172222503065;0.14200549706589363;0.020217186396828103;161.0;0.21132489492271264;0.10309833789307751;0.010656901671189552;166.0;0.17433626970079086;0.18874121822364;0.03573784556506571;146.0;0.23788687508436002;0.20675228250370667;0.042883559907300584;158.0;0.24591308039841267;0.21365396469004705;0.04579676567988963;158.0;0.25086221779756;0.21422111239840816;0.0460398260979009;154.0;0.24826063499532006;0.21291861757575387;0.045482455691605486;154.0;0.24379157129471885;0.20916218742060402;0.04389016283402944;161.0;0.24048128258021123;0.16110724685820627;0.026039872359808182;149.0;0.20284616258992338;0.17010794372549598;0.02902605996167746;150.0;0.2323253379980617;0.1512127244895663;0.02293929591070869;163.0;0.21823802654351113;0.15353400198120576;0.023649723960970526;157.0;0.21995034974560365;0.1574172709885087;0.024856918596012214;152.0;0.22177085261004098;0.15718315055044133;0.024784746183315633;154.0;0.2211968016002978;0.15854040499961197;0.025215088937057383;155.0;0.22381267308718283;0.17224924070616424;0.02976653913019376;160.0;0.23050768057120286;0.1629753462089556;0.026645076550365635;162.0;0.2305563655605896;0.14708537058698662;0.021704681724512728;158.0;0.21579549947851376
0.13182415881690662;0.017429821154725283;156.0;0.2086625746466956;12.0;0.1254684933975472;0.015793138090906166;157.0;0.19453445175313225;0.12062489869618838;0.014596842089421984;159.0;0.18566400233355032;0.1147161970491519;0.013199745431032125;159.0;0.18155522162529958;0.10275454506326805;0.01059137171243592;156.0;0.17754488360140597;0.0911157900143941;0.008328761840771286;159.0;0.17323620516233615;0.083972114214952;0.007074036162967524;161.0;0.17099786173929812;0.13160310039408288;0.01737074458971364;152.0;0.20977944691055997;0.09985457678096779;0.010003036608091676;157.0;0.18353402484066283;0.11065057315173421;0.012282671443371846;153.0;0.19465672654065205;0.11955074584245279;0.014338625832134617;148.0;0.2018482416454784;0.1072440843908217;0.011538947334096588;154.0;0.19785321185867452;0.10469831289862608;0.010997701681240963;154.0;0.19900819726516852;0.11227206595235915;0.012643878300399914;159.0;0.20224947654555528;0.12232375508995694;0.015006333384180453;164.0;0.20670602253741413;0.09323486525954443;0.008721205929384445;150.0;0.17527068769973386;0.13054643203301405;0.017096182330478982;149.0;0.2087078146199035;0.14345357711706636;0.020638120235759776;158.0;0.21732131491575296;0.15993443201697702;0.025658499232666512;154.0;0.2271939029608667;0.17251613769008953;0.029859072056163876;153.0;0.2302828482792662;0.17349479281182903;0.030195921253845712;155.0;0.22599499324575775;0.16860583281238473;0.028513901843305656;160.0;0.2212590001511035;0.12719377382227678;0.016227431924617966;141.0;0.18301310744046065;0.12113993132060386;0.014721708024217019;158.0;0.2026405341635261;0.11764717878622608;0.013884559899380998;147.0;0.1956527339496679;0.1199616616006649;0.014436756720699294;146.0;0.1983506500213844;0.12030138020240307;0.01451889077614966;151.0;0.20023549512373875;0.11762103325145766;0.013879557461278062;159.0;0.19912296575075566;0.12143156974258833;0.014792195142206017;161.0;0.19972726296217494;0.13983178405881408;0.019609826899622807;167.0;0.20563458545689375;0.12472594993746795;0.015607418476442713;165.0;0.20221458393478506;0.11376236158159461;0.012984181133802246;152.0;0.19396520365625453
0.17658853564601645;0.031285328590142554;147.0;0.23401635482637545;12.0;0.158866100554516;0.025321119834614658;143.0;0.216599424202169;0.14710272873752384;0.021708629453634564;151.0;0.2053143384230152;0.1354225156495061;0.018394914078469285;153.0;0.20034158162348645;0.12045147134941828;0.014550715701021257;154.0;0.19533736746029745;0.10869998342732098;0.011845763981715888;156.0;0.19139097596079538;0.10263254364883563;0.010554678787800644;157.0;0.19039207752383758;0.18066371176637272;0.03274629817824765;139.0;0.23850194471419717;0.19462808862263045;0.037796457929176845;157.0;0.22455955051650783;0.15799435736250778;0.024974294431681334;161.0;0.22552700989066937;0.1470759230019782;0.021695579524508454;156.0;0.2302459249225244;0.14415901156160907;0.020849719726829023;159.0;0.2318034734387328;0.1457650649170403;0.02131673257555616;159.0;0.23381165435063883;0.14978263465574232;0.022508134387125976;160.0;0.2338842270690318;0.15981888878924966;0.025625559315190324;159.0;0.23563813016522542;0.24398049404528518;0.059280089029815686;154.0;0.22963505294763503;0.09152248650400041;0.008397283745529779;154.0;0.1842191205099846;0.09993813122044014;0.01001129431028917;160.0;0.1899107830400704;0.11146967267189474;0.01245041044512331;160.0;0.19574288781797122;0.11723036010429895;0.013771372775474817;164.0;0.19158064192379765;0.11494923576856483;0.01323518741583031;165.0;0.18550374098339842;0.10912773297247202;0.011934857527560011;162.0;0.18106820822078715;0.08553350462440666;0.007329434225766307;149.0;0.15055647848605816;0.08241895972792486;0.006811970706111571;161.0;0.1795805219372652;0.08471817777406379;0.007198403668331556;149.0;0.17770327326779065;0.08681373878996353;0.007558545713774711;149.0;0.18061088351510263;0.08384092184215329;0.007049301029270214;157.0;0.1804945401749359;0.08261967859785499;0.006847429893064611;155.0;0.18194357205852388;0.08622823557279823;0.0074591907071400315;153.0;0.18192549598664545;0.09568754026502171;0.009186031944128313;162.0;0.1855281104289596;0.08960525059949859;0.00805530131321663;159.0;0.1854157953283354;0.07923700755584931;0.006296637590658045;156.0;0.17269310864059179
0.17896557541611605;0.03212274179507057;147.0;0.2414239348450888;12.0;0.1593795561828734;0.025475249217394223;142.0;0.22540782217051009;0.1476930497671646;0.02187629447373232;152.0;0.21545890651859687;0.13667700571212987;0.018733384548670517;151.0;0.21092996755447918;0.12112985472995816;0.014713465738036363;157.0;0.20471211640057882;0.10978097081488221;0.012086726120667407;153.0;0.19912575246783007;0.10535316335303684;0.011130785025755173;148.0;0.1976896890640011;0.18506049902577565;0.03435456990781877;143.0;0.24935514874482023;0.22485834713239297;0.050723534647988594;159.0;0.23254067381947297;0.1706901865121589;0.029227954788431494;153.0;0.2314910528599256;0.15047864249949391;0.022717866194241206;155.0;0.23558808367041192;0.14388001094330163;0.02076570171501406;156.0;0.23530429826046934;0.14504479923726657;0.021100703584141935;158.0;0.23561808635125175;0.14544745425142275;0.021220819056971162;159.0;0.23327725529837606;0.1549414897554236;0.024082541794774554;157.0;0.23361833018010109;0.2981191914124696;0.08914931583579523;162.0;0.24070658430769404;0.08677439636574247;0.007554103854376668;153.0;0.18676492182180607;0.0918678190514795;0.008466585252916287;154.0;0.18894882867084856;0.09750153602973302;0.009537126566104922;155.0;0.18863842645421053;0.10046384238714888;0.010124497467545287;152.0;0.17977409004861036;0.09872405631318315;0.009777632611721132;148.0;0.17154206073517522;0.09517002346943358;0.009086222679307275;145.0;0.1671117251892856;0.07689681268823521;0.005931344776253757;152.0;0.14292067030936992;0.0822630866039272;0.006789166006916492;162.0;0.18350784942170253;0.08213953400119815;0.00676773718260028;162.0;0.1714191656925759;0.08308876721939555;0.006924108461334832;158.0;0.1742118103504556;0.0790149274316458;0.006261931346574585;158.0;0.17362862352159988;0.07982959013763144;0.006392402949663405;151.0;0.177500046755166;0.08143908131166182;0.00665183287054571;150.0;0.17783063246597602;0.0860015052523136;0.0074173886174878;157.0;0.18052337184248524;0.0865759839849599;0.007518010484634908;156.0;0.18536261489394554;0.0770067586048497;0.00594883312588854;163.0;0.1661538294383066
0.1455398428319391;0.02125054309370646;152.0;0.22780553373279824;12.0;0.12932851704047146;0.016778936081059372;147.0;0.21444008013890334;0.12363929116770825;0.015333429606313153;151.0;0.20557381049578113;0.119041389160479;0.014211327914608428;148.0;0.20041694748202327;0.1101104597490702;0.0121520610235532;147.0;0.19395419272937484;0.10321928981654359;0.010671654963107503;138.0;0.188655375581945;0.10007445029070153;0.01002262146730643;137.0;0.18681700512449412;0.15659074233011025;0.024600541768211717;154.0;0.23771695035049245;0.1628183189915399;0.02632229130899857;144.0;0.20819341618038287;0.13585048384236859;0.018432508450168052;137.0;0.21203833395384403;0.11994817737226557;0.014423905760198757;137.0;0.21449196526048628;0.10842431534711379;0.01179116046889067;144.0;0.21008501191913634;0.11065299794342602;0.012281152710739051;145.0;0.20954014694891918;0.11140174665490275;0.012449687042992765;153.0;0.20695104716167956;0.11792843875338696;0.013950639476885263;157.0;0.20754899736327023;0.20953037301447933;0.04348226054235679;143.0;0.20758405907884012;0.10395294598667978;0.010841794979567457;160.0;0.1882379755362359;0.11271024788425314;0.012745323565107243;154.0;0.19266939810965789;0.12302454732467386;0.015184777451158359;154.0;0.19590530336836412;0.12787282714428166;0.016404690420773485;153.0;0.18989419361126028;0.1226670822385861;0.01509621854474392;149.0;0.17957936855869605;0.11337606148574322;0.01289625546168104;142.0;0.17067165738480863;0.08914352825887971;0.0079718104136604;147.0;0.1452559293548929;0.09483621066969856;0.009023376585804965;172.0;0.18043617029271558;0.08863285861113447;0.007881502073348508;168.0;0.16290296261036036;0.09027425034209022;0.008176117682107102;165.0;0.16507487339465615;0.09422703982649092;0.00890758932549987;162.0;0.16743963657189964;0.09718348604606789;0.009475491909063999;153.0;0.17230560958516214;0.09555804290914506;0.009161182384010225;154.0;0.17227223184709384;0.09908523209227085;0.009849881153533213;160.0;0.17586178475258385;0.09682753975284289;0.009405897698319456;159.0;0.18291654646971683;0.08621836707550413;0.007457925208566986;165.0;0.15916798848765804
0.14387548670734168;0.020767162524691102;154.0;0.21873253116849417;12.0;0.12508595831057062;0.01569553547575884;152.0;0.20092802131576962;0.11687637473639795;0.013702465411333327;156.0;0.18968982048996577;0.11192433655224777;0.012565540415287168;154.0;0.18383082689280839;0.10381054771298842;0.010810862595210574;148.0;0.17801490303109446;0.09577569346973777;0.009202444887485511;145.0;0.1738403681079512;0.09118936434056789;0.008342675166095439;149.0;0.17313401010836682;0.1543476867473232;0.02390007127241458;151.0;0.22693007592886072;0.11620516246873618;0.013535826218667883;149.0;0.19785591993503387;0.1170239686058859;0.013735156354400065;153.0;0.20458528279511373;0.11203391094185172;0.012590586814598823;148.0;0.2069406959830744;0.10700408834557205;0.011487117662916472;154.0;0.20654366360054632;0.10950131489849516;0.012029312622425377;153.0;0.205948297784693;0.11227148262561187;0.012645509965597481;159.0;0.20337590229969962;0.1171336589413632;0.013765122228799111;158.0;0.2049430624558819;0.12116111649936301;0.014696779481292903;144.0;0.19213429669369125;0.11339061972880492;0.012899544258833712;158.0;0.1908721229625586;0.12544141584663823;0.01578726444428176;148.0;0.19760109192723052;0.1402519857275144;0.019735047772583617;150.0;0.20396280248974843;0.14818560098158404;0.022030775517127194;153.0;0.2017625749082618;0.14316298474692055;0.020562619651302193;151.0;0.19286076255792522;0.13428023399459835;0.01808994868125632;145.0;0.18506518255627669;0.10646638284772769;0.011370966687961444;141.0;0.15694476036908708;0.1007639950158183;0.010186407967454621;169.0;0.18266175482034283;0.090689761251799;0.008251160883429792;152.0;0.1666142054853418;0.09109166487811522;0.008324591728878636;145.0;0.16671211100565092;0.09624049973190879;0.009292270647569411;149.0;0.16846156110652516;0.09908599843506488;0.00984949229969872;149.0;0.1724201551650351;0.09831234556739563;0.00969455712088903;147.0;0.17311224783329368;0.10318765663042906;0.010674055013508611;154.0;0.17896907807061443;0.0981384559121456;0.009658907550264722;159.0;0.18438600143667294;0.09077566571525265;0.008266733904448896;153.0;0.16544935469119537
0.1249406009423765;0.015657550961554644;160.0;0.20545833036448263;12.0;0.11237218891339536;0.012661780101096934;154.0;0.19210025431772268;0.10382072943724895;0.010805035278295856;163.0;0.18370048120340227;0.09808305177949365;0.00964472509360624;156.0;0.17844291957190225;0.08813425943660055;0.0077885206567952815;150.0;0.17141397177177775;0.07745421490985989;0.006015753089973593;152.0;0.16552752788407468;0.07138921837389571;0.005110070498341408;156.0;0.16345951885112286;0.1241558732411826;0.015461786040570025;154.0;0.20711561339162224;0.09045672603230263;0.008205299577223078;145.0;0.1802772988474966;0.09505811570900609;0.009055983958590023;165.0;0.19081487575066622;0.0960891260192127;0.009243424131221156;153.0;0.196661923132823;0.08937515458175121;0.008001995059068318;146.0;0.19186166209026112;0.09317330514846692;0.008701799824481622;150.0;0.19026728180014257;0.09507794210595247;0.009062018251139893;153.0;0.18812908904208325;0.09569508741594486;0.009184279768826187;151.0;0.1885446193412973;0.10263675631604789;0.01056676108310756;145.0;0.17644433169029;0.10744288367666532;0.011570830931616895;154.0;0.19488865591176496;0.11838968692260483;0.014052456263590841;146.0;0.2011281022943639;0.12955091391403054;0.016826926599689148;145.0;0.20527295270327023;0.1351276191470645;0.018309203722393922;150.0;0.20378343588916242;0.12954484677314412;0.01682619072932457;148.0;0.197351367882527;0.12285193646427352;0.015134268893627794;150.0;0.19193339077842614;0.09722461238281903;0.009481973868158427;147.0;0.15962149986136537;0.0933155744152043;0.008727569345338615;152.0;0.18539428197703348;0.0802268630550423;0.006455082360375814;153.0;0.17104330351707064;0.0803771468748214;0.006480852914043849;144.0;0.17139714940648595;0.07832902399510058;0.006155494848833822;141.0;0.16960036492272781;0.07752263828039492;0.0060292754487783;147.0;0.17244695230205817;0.0761039907664038;0.0058107108611216715;140.0;0.17370810711771462;0.08202644568931858;0.006750329178180122;146.0;0.18041000665088525;0.08025665518735246;0.006459460418331672;147.0;0.183508319314129;0.07830912158219014;0.006152113048495665;158.0;0.16965657212461166
0.11023198781154142;0.012185514168709798;164.0;0.19044071083900393;12.0;0.10363522847341604;0.010770185317207713;162.0;0.17909972823617154;0.10018253694913068;0.01006244311486237;169.0;0.17269058204618978;0.09558516542452362;0.009159571230449205;164.0;0.1684748370772568;0.0857089740717888;0.00736410821425982;158.0;0.16255484803250456;0.07475023636275549;0.005601070327234063;161.0;0.1568156587361657;0.06816240367651422;0.004652500012746257;160.0;0.15388691140986369;0.10677036446747226;0.011430613486281733;171.0;0.19418541442550571;0.08933053384374082;0.007992534230658807;153.0;0.17091990485731884;0.08730152481056574;0.007634426705784293;169.0;0.17074130573976248;0.0921579123850818;0.0085111192865165;164.0;0.1775981787147225;0.08229108941909159;0.006790323211681139;148.0;0.17332178657739802;0.08248635892680434;0.006824404051802705;154.0;0.17304971373700534;0.0832308009608967;0.006949168919665523;157.0;0.1715306792015634;0.08171192375017951;0.006695752079907453;160.0;0.17021504515868516;0.10750976824847443;0.011581490163746131;144.0;0.16944252124244802;0.09972445490436282;0.009976366444686201;145.0;0.18122909034197718;0.10816597459654612;0.011736919744819328;147.0;0.18641866264039003;0.1169855393801576;0.01372903691158432;151.0;0.19125879175432728;0.12148358093897435;0.014804406027099034;155.0;0.19265106551853534;0.11633910818885432;0.013575156054595312;150.0;0.1873912924221894;0.108036986398665;0.01170643349619636;148.0;0.1823490578706188;0.08151641700919175;0.0066628230515115355;159.0;0.14877978725593397;0.0880658981109998;0.007778920736095772;142.0;0.17268807132170175;0.07029091731342536;0.00495533296983878;157.0;0.1628401714590026;0.07366135490614532;0.005441365711635255;155.0;0.16535691016940163;0.07356993934166073;0.005426238421149294;151.0;0.16489296082362048;0.07341604951522819;0.005405428806416831;154.0;0.16544797744872108;0.072489229906486;0.005270309405510824;151.0;0.1649006120799888;0.07859716446024702;0.0061969275509092345;155.0;0.17176682528321488;0.07654796469420298;0.005877273188897376;149.0;0.17174019156523818;0.06541700830175004;0.004290170057891134;161.0;0.15960472659699523
0.1629292524386773;0.026631964409555203;155.0;0.21224565537834575;12.0;0.16623474149406178;0.02772437446259516;157.0;0.20200604730904262;0.1803308535222475;0.03262435939947236;164.0;0.19969945549846632;0.17414608786128602;0.030422810406593174;166.0;0.19662948238976682;0.1416194862222066;0.020121395416234995;159.0;0.18528882284942494;0.1153094014855988;0.013339691714454923;158.0;0.1754278442759585;0.10312101758549787;0.010666904969329604;151.0;0.17130743400463735;0.16088267297523046;0.02596258748360218;162.0;0.21771538922923572;0.14213607206800416;0.020267279962052465;154.0;0.19398731419131557;0.1546301582943208;0.023981443268427046;154.0;0.20271572954855327;0.182023970279696;0.03322504987322542;156.0;0.21648200174110785;0.14849476758788097;0.022108522062124603;151.0;0.20664950616855685;0.133008606390791;0.017739072492118105;171.0;0.2062903564323838;0.13934568275547296;0.019471106093767933;172.0;0.2080011316408354;0.14357859635563336;0.020676849878776608;167.0;0.2078532331119985;0.13943016882154505;0.019504305123959318;143.0;0.1881575068238864;0.08784517367061255;0.007741549034590357;114.0;0.14270596029283697;0.09471532630951596;0.009000224274686452;122.0;0.14653984086001834;0.1061921079736495;0.011312979368101909;125.0;0.1533607226661625;0.11815687445240328;0.014006671718298152;132.0;0.1606787716397233;0.12001657474479305;0.014450332735628074;131.0;0.15953048042989187;0.11410312472538672;0.013062129760885138;132.0;0.15767433054679292;0.08814040143722357;0.0077939941391586675;146.0;0.13625762164526092;0.08255392594058632;0.006835665613845721;124.0;0.13902235322783457;0.06992186299373634;0.004903030923769515;132.0;0.1343380114085945;0.07211413319017598;0.0052159137847843685;130.0;0.13596024945465254;0.07174258543071482;0.005163794352567328;141.0;0.13722046538755087;0.07173305890596018;0.005162242882542278;146.0;0.13714523239942958;0.07357645999723443;0.00543056000682512;140.0;0.1365509176568741;0.07807091125348035;0.006113511667088808;142.0;0.14197851782093446;0.0752918448924512;0.005684002232680127;139.0;0.13968088049506563;0.06734406129801683;0.004547037587281754;136.0;0.13359597666245687
0.22551188605255232;0.051019773382704546;149.0;0.254487733207106;12.0;0.23287464935037708;0.05440732236941894;144.0;0.24412841362728083;0.2492045861361916;0.06230610596706209;154.0;0.2424591111160805;0.24357888497306343;0.05952459003604093;153.0;0.23780577522736537;0.20839769397590174;0.04357143312063249;151.0;0.22581747928131185;0.17999169640703752;0.032503095261367146;151.0;0.21798899077404757;0.16567965180433142;0.027539682632455476;151.0;0.21436689202009665;0.22707125497771583;0.05172087637257015;150.0;0.2601808099647447;0.18375143461264595;0.03387482613291153;154.0;0.22506914452402904;0.19406197149931212;0.03778304630027462;153.0;0.24102557729597326;0.21062105869955755;0.04450549650998677;147.0;0.25493712974216165;0.17856136945273895;0.031986350274356555;142.0;0.23843615096173484;0.172979744500465;0.030014424354634667;154.0;0.239222567050035;0.18441435718396412;0.03411410240988817;155.0;0.24470642189060188;0.19158260839420496;0.0368191358483663;150.0;0.24761162671599268;0.17439146627270033;0.03051119794450611;154.0;0.220669748640665;0.16044159715447612;0.02582350379162078;114.0;0.18570474089028766;0.16762622452905923;0.02818335459495156;118.0;0.18996870541109429;0.17206260641677626;0.029696399191157928;120.0;0.1908946007377326;0.1796394289449125;0.03237044129707919;130.0;0.19175246243585922;0.18803031627200087;0.03546517845123286;139.0;0.19287826849066556;0.19060071086368965;0.03644445205561411;141.0;0.19419641821398997;0.14528852291247624;0.02117140632153194;147.0;0.16701356604953674;0.1436739317206209;0.02070896032406771;129.0;0.1772043610343684;0.11794030818507172;0.013955140429442079;136.0;0.1678948558265989;0.11629120243226153;0.013566862027008457;133.0;0.16592220922546422;0.11447786647638612;0.013147513580935832;137.0;0.16441898103114644;0.11543985160166788;0.013368030863473792;141.0;0.164834860758716;0.12625818831523192;0.015991718987462673;137.0;0.17051212747045336;0.14473031399364117;0.021014168871240062;142.0;0.18101824782626802;0.14010808550770404;0.01969289331657353;134.0;0.1809604292900498;0.11936361227256473;0.014292970681730023;141.0;0.16914837957078796
0.19013180654119727;0.036267460467411354;163.0;0.23892698114137376;12.0;0.19312197462666064;0.037417835805062444;152.0;0.22733800697371256;0.20155524837858196;0.04075110105301198;157.0;0.22501322723379702;0.20009871371627633;0.04015817834609143;154.0;0.22116429081560357;0.18190239067630481;0.033189816201162146;156.0;0.21575028264411575;0.1650757735331832;0.027335418057044283;154.0;0.21297857017669666;0.15514881098341984;0.024145394575753907;162.0;0.21125471263855197;0.1945450212127752;0.037967680284316005;168.0;0.24406188996218797;0.16823289921105142;0.02836866431161399;160.0;0.21599994878140089;0.1668478173002024;0.027914928177196;168.0;0.22735562398870296;0.1583994738403433;0.025171034377221978;167.0;0.23735339127704588;0.14355711435648336;0.020676155721827995;156.0;0.22807296292603357;0.14814161512853188;0.022015674499142025;150.0;0.22958358549135377;0.15558694250556998;0.024283655980577863;147.0;0.2323839135707048;0.16049182292088557;0.025841146554448614;149.0;0.2339274683908624;0.16180769618003796;0.026235270826769738;158.0;0.21372411743887262;0.18647085033169641;0.0348700027013919;157.0;0.2300570770036211;0.19344781504878142;0.03752810617504122;153.0;0.23606262695169214;0.19359342711589556;0.037589881800079814;157.0;0.23435341906828533;0.19870701149084294;0.03960437004075129;162.0;0.22936544779229714;0.20627645554475485;0.04268243249928962;164.0;0.2274898528870937;0.20968804581917425;0.044106347141894944;160.0;0.2268169066947017;0.1613206120758847;0.026105716446349465;163.0;0.1868867690671717;0.16847008788647858;0.02846578878843752;167.0;0.2171916028549842;0.1432723015015092;0.020590855152580547;164.0;0.20396992830916752;0.14216781198600612;0.020276021032276416;165.0;0.2031554999090005;0.14199522264487774;0.020226822544290413;164.0;0.20164611933794327;0.14488883924260165;0.021061042325453805;163.0;0.20226992694005633;0.15644779409103832;0.02455522202153684;164.0;0.20791968725622467;0.17601430770343712;0.03108225424053485;161.0;0.21839295227116903;0.167970141552666;0.028305549786355907;158.0;0.21827062059106675;0.14211119166837316;0.020257531767763286;167.0;0.20330939081844998
0.1421446662134849;0.02026523932956912;152.0;0.21385144553290175;12.0;0.13784680742872477;0.019047661774495087;151.0;0.20363270453004867;0.1336776591966816;0.01789889582535227;157.0;0.19935383673834084;0.12841784901068246;0.016511882575057726;158.0;0.19733126534114795;0.11824066669319104;0.014000530506978469;157.0;0.19320459046877567;0.10869803903827835;0.01184096910520693;147.0;0.18909186547293566;0.10268888951427314;0.01057302135557068;154.0;0.18636218118132583;0.1410748819177046;0.019967380559138024;159.0;0.2193562071846155;0.12591322659930299;0.01590111129578954;152.0;0.19541056693778952;0.12973879812836467;0.016883905567719817;162.0;0.207469122036909;0.1290614662478007;0.016710289215890618;164.0;0.21598976848613605;0.12116429842300476;0.014726483941349552;162.0;0.21539512516162224;0.12344158241451693;0.015285516448464997;157.0;0.2176980234870458;0.12427103109815252;0.015492083261532655;152.0;0.21592599386903652;0.12289735695216322;0.015152692218760148;153.0;0.21278305481834525;0.1277419968869489;0.016365407101026123;143.0;0.19292538791992836;0.1438076608606992;0.0207200720047291;172.0;0.222170123147399;0.15465624416662455;0.023954293934726197;172.0;0.2283769966905028;0.1642885515978652;0.027037874059300006;170.0;0.2315774081990157;0.16885662586679684;0.028570556838832025;168.0;0.22649750235187355;0.16516135090118284;0.027344963602188917;158.0;0.21942119041509298;0.15817516989194985;0.02507731329084197;155.0;0.21353088621918706;0.1252840277342766;0.015727605426680797;151.0;0.17707030112689934;0.13276038551082123;0.01766534880402795;169.0;0.21345188308630453;0.11754884609279215;0.013851461577373509;166.0;0.19913501771436937;0.11995662633925214;0.014423539439374697;165.0;0.20058906230593124;0.12234118220493388;0.014996801587442448;169.0;0.1994803240432939;0.12563526032667005;0.015821463869853326;166.0;0.20060330525688352;0.12783328409355296;0.016372413255438915;165.0;0.2015198445548284;0.1364237203553687;0.018656626111038403;159.0;0.20608991426347;0.13001021430970333;0.016932704129928703;164.0;0.2080237247173275;0.11237294286986366;0.012655653637786271;163.0;0.1962028034769289
0.16379471954313565;0.026914962311781324;145.0;0.22233867698094742;12.0;0.15818602736568502;0.025104625230857117;149.0;0.21094014713688866;0.151038643686921;0.022886076847791186;154.0;0.2015507340560666;0.14370091905033935;0.020713152042611812;157.0;0.19700641714674239;0.13335643631775962;0.01783659602392436;157.0;0.1922948595852105;0.12423957022439319;0.01548055237388433;148.0;0.18892348176323165;0.1183454622310498;0.01404627057254849;152.0;0.18683985111706905;0.16277782243418873;0.026580812459804464;151.0;0.23213357902312468;0.1332603588583777;0.017805481942132027;143.0;0.20304609967929507;0.13009518406182344;0.016969836511637335;149.0;0.21012436756383698;0.13047162650487437;0.017076852129964362;147.0;0.2130003197711013;0.12494481901197077;0.01566153484493802;149.0;0.21235193544878672;0.12958040477903196;0.016845979759491387;152.0;0.2137004520601895;0.1324844215816702;0.017608418320201755;156.0;0.21244764282766368;0.13278346006163053;0.017688337543911713;157.0;0.21171006313246515;0.14176817236890657;0.020139189143607697;137.0;0.20142449574411883;0.12361069275262787;0.015295509540126075;156.0;0.20234030985281767;0.13754543130378916;0.018949041981076654;158.0;0.20813796270252166;0.15208874624856875;0.023180974263705877;160.0;0.21340317189951258;0.1542806119792342;0.02385373824232505;165.0;0.20815210487005179;0.14755857660597907;0.02182156681767423;162.0;0.20075822703211108;0.13853783326489397;0.019237711639279276;160.0;0.19664661858451354;0.11158921803531394;0.012479266928734006;152.0;0.17012536790472949;0.1133239190324125;0.012851200643981264;156.0;0.1963003803408494;0.10061100529210258;0.01015501519531102;158.0;0.18438890805743324;0.10186036858416359;0.010408438070826581;160.0;0.18556559075830095;0.10508755929207149;0.011075819440258225;157.0;0.18791668007643086;0.10576745141335595;0.011215776938186926;157.0;0.18956127822585303;0.10018620227484855;0.010061117673351877;157.0;0.18631259417297816;0.10517856873208153;0.011084898336817537;158.0;0.19114055204572414;0.1057020171832918;0.011198644207691384;159.0;0.19687227579454394;0.09795206530170104;0.0096231461872811;156.0;0.18149387876181716
0.1325493383747232;0.017625840122689765;152.0;0.20639717130132526;12.0;0.12904334446529275;0.01670437450728865;155.0;0.19520870352541067;0.12787050068651487;0.01640350373988075;150.0;0.18797908149188894;0.12448097905566201;0.015545412302993155;150.0;0.18304378036593558;0.11765414876903159;0.01388731412723994;154.0;0.17913218265841455;0.11149284384071921;0.012470269223918102;150.0;0.1768908116228455;0.10721516380843515;0.011532178168418568;151.0;0.17590780121425847;0.13365455366897244;0.017922060813303036;155.0;0.21343445823751378;0.13145813738779377;0.017334228191233952;140.0;0.1966966571316552;0.12379333082717621;0.015369765796569405;145.0;0.19962408614410093;0.11869855414023595;0.014134347076160866;145.0;0.19926164662517767;0.10585367341192813;0.011241391139283793;147.0;0.19406716566717527;0.10243107419329679;0.010525258583026671;149.0;0.19311986118530605;0.10203344097372975;0.010443995831026981;153.0;0.19226287805619532;0.10456096587468955;0.010968858128911026;153.0;0.19367714182904391;0.1364658428707095;0.018674421367543735;129.0;0.1938276772298439;0.11404750669521475;0.013047393286286;151.0;0.19266360903441282;0.12630815397859857;0.016004819260060428;150.0;0.1991714782723298;0.13972324506485104;0.0195859843497608;156.0;0.20392156220494354;0.14813405962678458;0.02201443787755858;164.0;0.19914396402934276;0.1483554595089552;0.02207720232079773;162.0;0.1937751814553504;0.14244398470707487;0.02035250785954546;156.0;0.18930911501359496;0.11395151499769804;0.013023835731588464;150.0;0.1630598891556522;0.10843518879632492;0.01179469538890221;155.0;0.187165121841492;0.09780100240763302;0.009596188761260721;160.0;0.17175924193996864;0.09680566851959779;0.009401988505426223;166.0;0.1727062355243034;0.09845997925204485;0.009725954775691985;156.0;0.17642695521051793;0.09950335010655903;0.009933239791415414;159.0;0.18007477435401284;0.10015437857717539;0.010062379890404228;158.0;0.17935480975547324;0.1155353491922745;0.013389153500853587;157.0;0.18922641278958818;0.10813197356894423;0.011727906089703354;160.0;0.19126757628572805;0.0979111283574687;0.009617677357384077;154.0;0.17086177885444256
