rms_s1_ch1;var_s1_ch1;zcr_s1_ch1;wl_s1_ch1;rotule;rms_s1_ch2;var_s1_ch2;zcr_s1_ch2;wl_s1_ch2;rms_s1_ch3;var_s1_ch3;zcr_s1_ch3;wl_s1_ch3;rms_s1_ch4;var_s1_ch4;zcr_s1_ch4;wl_s1_ch4;rms_s1_ch5;var_s1_ch5;zcr_s1_ch5;wl_s1_ch5;rms_s1_ch6;var_s1_ch6;zcr_s1_ch6;wl_s1_ch6;rms_s1_ch7;var_s1_ch7;zcr_s1_ch7;wl_s1_ch7;rms_s1_ch8;var_s1_ch8;zcr_s1_ch8;wl_s1_ch8;rms_s1_ch9;var_s1_ch9;zcr_s1_ch9;wl_s1_ch9;rms_s1_ch10;var_s1_ch10;zcr_s1_ch10;wl_s1_ch10;rms_s1_ch11;var_s1_ch11;zcr_s1_ch11;wl_s1_ch11;rms_s1_ch12;var_s1_ch12;zcr_s1_ch12;wl_s1_ch12;rms_s1_ch13;var_s1_ch13;zcr_s1_ch13;wl_s1_ch13;rms_s1_ch14;var_s1_ch14;zcr_s1_ch14;wl_s1_ch14;rms_s1_ch15;var_s1_ch15;zcr_s1_ch15;wl_s1_ch15;rms_s1_ch16;var_s1_ch16;zcr_s1_ch16;wl_s1_ch16;rms_s2_ch1;var_s2_ch1;zcr_s2_ch1;wl_s2_ch1;rms_s2_ch2;var_s2_ch2;zcr_s2_ch2;wl_s2_ch2;rms_s2_ch3;var_s2_ch3;zcr_s2_ch3;wl_s2_ch3;rms_s2_ch4;var_s2_ch4;zcr_s2_ch4;wl_s2_ch4;rms_s2_ch5;var_s2_ch5;zcr_s2_ch5;wl_s2_ch5;rms_s2_ch6;var_s2_ch6;zcr_s2_ch6;wl_s2_ch6;rms_s2_ch7;var_s2_ch7;zcr_s2_ch7;wl_s2_ch7;rms_s2_ch8;var_s2_ch8;zcr_s2_ch8;wl_s2_ch8;rms_s2_ch9;var_s2_ch9;zcr_s2_ch9;wl_s2_ch9;rms_s2_ch10;var_s2_ch10;zcr_s2_ch10;wl_s2_ch10;rms_s2_ch11;var_s2_ch11;zcr_s2_ch11;wl_s2_ch11;rms_s2_ch12;var_s2_ch12;zcr_s2_ch12;wl_s2_ch12;rms_s2_ch13;var_s2_ch13;zcr_s2_ch13;wl_s2_ch13;rms_s2_ch14;var_s2_ch14;zcr_s2_ch14;wl_s2_ch14;rms_s2_ch15;var_s2_ch15;zcr_s2_ch15;wl_s2_ch15;rms_s2_ch16;var_s2_ch16;zcr_s2_ch16;wl_s2_ch16
0.021433097690691554;0.0004608155108612214;161.0;0.08140795449296083;12.0;0.019375376765029324;0.00037663095486441153;153.0;0.07723189106758621;0.0180461014374067;0.0003267267291779656;154.0;0.0758464560850344;0.01651986230923765;0.00027378211434488363;151.0;0.07295815474100059;0.015928017096630265;0.0002545289361258249;150.0;0.07166817894910554;0.0159299073207468;0.0002545802234162736;146.0;0.07309012482232896;0.015240653291127252;0.00023296582927742802;148.0;0.06970771730800011;0.027906307551420238;0.000781229480952402;159.0;0.08904134832336454;0.010929269786284735;0.0001197881808085453;147.0;0.06389027413392022;0.010584565589194336;0.00011237845580456671;154.0;0.06358790859972008;0.011422649762695154;0.00013078915882544173;148.0;0.06525739769483445;0.013631598653609606;0.00018638759066406257;146.0;0.06726675136552686;0.015937305652833977;0.0002548150388267501;143.0;0.07260737670010173;0.01985567410133595;0.0003954805884907747;147.0;0.079808625656132;0.024788615746147123;0.0006158522301070436;148.0;0.08601584999030802;0.010614608812163326;0.00011299460508149127;150.0;0.06446713230009357;0.16267100237213056;0.02653002691869896;140.0;0.20092395426700801;0.17319579534203774;0.030066416708085315;135.0;0.19783572357091017;0.18670672887390305;0.03493782171542561;141.0;0.20143570467438615;0.17551429566937424;0.030862532414311368;138.0;0.19267131404321816;0.17525254920914193;0.030776243333805398;138.0;0.19247544334783936;0.17532903280599227;0.030808967798855412;138.0;0.1922955999901596;0.17534156540858056;0.030814347671529782;138.0;0.19257045096375444;0.14166626688146267;0.020119112119226304;142.0;0.18647868425421463;0.19744058817505172;0.039012642463016646;142.0;0.19088288435473205;0.19942825094600855;0.039807322813256996;143.0;0.19392064437354142;0.1806252874514373;0.03267512214177736;139.0;0.18947873254576345;0.15446912213687866;0.023916008810672695;142.0;0.18491500003830436;0.14091438029872394;0.019903746010891486;143.0;0.18348481193906757;0.1419812399608116;0.020209976240549692;145.0;0.18747638607238296;0.15131724975096195;0.02296125059515359;149.0;0.19653803007061865;0.1888820272612656;0.035711420671184615;135.0;0.18888583639891895
0.09573741493180497;0.00919358741872611;147.0;0.1409420919923092;12.0;0.09685094494919698;0.009407374935294824;141.0;0.1382213153379289;0.09259523008790577;0.008598291215720415;142.0;0.13493110188103463;0.07870631409244581;0.006211313935888575;144.0;0.12913095167523644;0.0693300358582329;0.004818272074547103;145.0;0.12323362584049105;0.061291042462002614;0.003764217207642522;141.0;0.11970412963601887;0.05532448922922212;0.0030673019369440342;139.0;0.11578487046859616;0.10435865165856592;0.010926322167088973;149.0;0.1500205820135748;0.05523021217037534;0.003057610649985122;144.0;0.11737130517595039;0.05596988799837408;0.0031415744122225728;145.0;0.11809829485626375;0.05754665047239917;0.0033222427612971507;157.0;0.1211944843410333;0.05791684174784907;0.0033651574458382727;154.0;0.1242667096653987;0.06625825438644509;0.004404548698595205;143.0;0.13217629738291484;0.08054751363318559;0.006509403468138349;149.0;0.1417756602377223;0.09737646707395076;0.009513320526974706;144.0;0.15180265478162766;0.055944634454119985;0.0031380599883725647;144.0;0.1181363990293122;0.11016441587447137;0.01216392806060759;158.0;0.17186570555007732;0.11939847874353561;0.014281386591889867;155.0;0.171204520883744;0.12564637879667348;0.015825362160850658;156.0;0.17224582611151598;0.12115834844974153;0.014716469900512398;148.0;0.1665971791200765;0.12113919835439813;0.014711765020954242;146.0;0.1667108531513068;0.12119902294967681;0.014720137806477502;149.0;0.16636457829115087;0.12117321687880067;0.014713593658865168;148.0;0.1664058253731864;0.09994937002604252;0.010013266729631405;155.0;0.15898977221416133;0.16405850385066903;0.02691989635620046;142.0;0.17081179004722183;0.15786850290250934;0.024928883365033253;145.0;0.17196202338267844;0.1340635856773699;0.01798011932025381;144.0;0.1641876604901015;0.10931817510672885;0.011954665874920351;144.0;0.15796472434672598;0.10123084326213416;0.010265032549248631;144.0;0.15823447900963689;0.10514009511243329;0.011074705662638133;147.0;0.16159398608990452;0.11022734617720867;0.012174724459617548;150.0;0.16701237021903106;0.16064988885943354;0.02582628508015148;135.0;0.1715792710259139
0.11863947504369513;0.014117675419027243;159.0;0.1753295696703709;12.0;0.12191727542629871;0.014906694449494075;156.0;0.17094106309312643;0.11854074195185997;0.014091857011269436;157.0;0.1665280231570068;0.104532801134095;0.01095922640398634;156.0;0.1591086370664508;0.09583456387563677;0.0092115782112618;158.0;0.15155906915448034;0.08732436225150904;0.007648662900862736;154.0;0.14622373938284647;0.08130773105275521;0.0066319096473358655;149.0;0.1410715546454175;0.12476545201729171;0.015614671870446063;151.0;0.1865404704251102;0.08240543761433158;0.006812476058744811;138.0;0.15042005716136742;0.07997061336267507;0.006416089397096519;137.0;0.15224454521457034;0.07617488101361147;0.005821377225152582;147.0;0.15348135460707163;0.07292473173841524;0.005335086607239934;152.0;0.15527516680953524;0.07996095015768319;0.006414140693513001;146.0;0.16473213960695127;0.09562310605321832;0.009172905860061814;145.0;0.1757485189135798;0.11651690439118201;0.013620108220525293;137.0;0.18753388482628944;0.08284958509011835;0.006886482995498742;135.0;0.14924097184509974;0.06613550173102149;0.0043734198676790795;164.0;0.14649382134527;0.07211108261726089;0.00519565963167087;168.0;0.14387990425695166;0.07346899266205963;0.005396589376128182;166.0;0.14194012339357057;0.058062191326921433;0.003350531628310547;161.0;0.1281102999650711;0.057676175613520314;0.003309327493126282;159.0;0.1284805942666629;0.05792265728287216;0.003334477851345743;162.0;0.12759446794052118;0.057752863862716566;0.003316745759536974;161.0;0.12791256979529783;0.05225903444943021;0.002723622676420459;162.0;0.13279367197115496;0.08944870157392096;0.007939183337004267;148.0;0.1421892526086814;0.08299383376898342;0.006828845160331075;154.0;0.14237300584403476;0.07074167615639997;0.004973887026870135;154.0;0.1356416515179511;0.0605141858374371;0.0036482286595297593;153.0;0.131071090586935;0.05706322099267968;0.0032508925852779884;151.0;0.13092224331185706;0.057641120860303804;0.003319335525319903;155.0;0.13208015555770708;0.060079770406058726;0.0036120301607057274;154.0;0.1372629554592315;0.08914332719278513;0.007910614708997931;141.0;0.14060117433471658
0.08468129532210358;0.0071933296647467525;148.0;0.15388389389292895;12.0;0.08813702590955254;0.007793499493504128;146.0;0.14898465334489655;0.0876834803979723;0.0077135052928245474;140.0;0.14511234194936612;0.08197421256405998;0.006741741708146878;143.0;0.14112638334517105;0.0796217211598921;0.006360240883990247;147.0;0.13661147845255822;0.0753132233802023;0.0056900873944321405;151.0;0.13332749502383945;0.0724605839271372;0.005267635380719053;149.0;0.129210906586138;0.08393440384651744;0.007065140764621583;143.0;0.1648397384946596;0.07044028839231327;0.0049778548267243004;141.0;0.1403659101842317;0.06576091454459507;0.004338464091427445;139.0;0.14265717120007884;0.05919855640570936;0.0035156962516639527;135.0;0.1416444276225915;0.05392969799329486;0.0029178054178237048;136.0;0.14132306104265438;0.05627577353976476;0.003176556557080616;138.0;0.14784529017941167;0.06437574741112219;0.004155443037994806;134.0;0.15582240640390743;0.07694659222062632;0.00593469369725197;131.0;0.16440001643130517;0.07004711216489432;0.004922589177499949;149.0;0.1376613773184378;0.06716112720762772;0.0045253463356345934;162.0;0.1498569541657614;0.06973623310098383;0.00487879490652382;152.0;0.14456162984670207;0.07074441785664269;0.005020616063253607;152.0;0.13956721439770411;0.057017626205435934;0.0032597196419845847;145.0;0.12609685905516896;0.057031821807992156;0.0032622459945456654;146.0;0.1265353369905889;0.05725224946634862;0.0032871988518522995;147.0;0.12596934403032123;0.05695300150382;0.0032526660271057603;146.0;0.12598350425380503;0.053323287862984584;0.0028526746890715974;158.0;0.13370257103741434;0.0667582998109232;0.0044694004796723965;156.0;0.1373478054408557;0.0648943155040121;0.004223921699938427;157.0;0.1380616635711722;0.05832121531230701;0.003411700960904832;159.0;0.13381007622558175;0.05387870868930744;0.0029123544769080675;160.0;0.13182353189990392;0.05295628420181696;0.0028135401779907283;159.0;0.13135742913363294;0.054737707616272925;0.0030058692453277286;158.0;0.13458487330898175;0.05874110983883396;0.0034612540373497127;157.0;0.1405335632600066;0.06532593841596479;0.0042795354365980235;152.0;0.1365922481834669
0.05544956690986695;0.0030690025949261725;130.0;0.12386721221730893;12.0;0.05640855871442737;0.0031798463083760084;132.0;0.12179648993676583;0.05611923782797452;0.003145269109790002;130.0;0.1201343120910869;0.051837760625014294;0.002682013668283739;131.0;0.11689108200480612;0.050318839770335445;0.002528577788089571;130.0;0.1155580644287395;0.04779829870925764;0.002284040294277392;137.0;0.1137978820745053;0.04661284819200526;0.0021746656586490542;141.0;0.11217243698784281;0.057344704272540514;0.0032859376380659933;137.0;0.13470772595471073;0.04348330694694477;0.0018963086518224647;150.0;0.11885188605186511;0.040092564510352494;0.001612160389770042;152.0;0.11949898508015842;0.03845782844888045;0.0014830536597417784;146.0;0.11989967160977978;0.03923976097148008;0.0015439214665421378;137.0;0.12112202518057263;0.04458512956067507;0.0019921127288048263;128.0;0.1263416242932415;0.05227127750172721;0.0027364477623174227;133.0;0.1343519533444026;0.05804846508382475;0.0033730840404802118;131.0;0.1411421948049077;0.040631013822792515;0.0016559227849913293;159.0;0.1155533187013704;0.0560040385969876;0.0031450774969522524;162.0;0.1379706998787066;0.061434969931230606;0.0037833503772491347;149.0;0.136248383136201;0.06200935212096051;0.003852944109895616;149.0;0.13219606295042033;0.04859815270541689;0.0023678404741438743;141.0;0.12085244676884646;0.04871106603732681;0.0023776767038506267;142.0;0.12091112468012061;0.04854782788800656;0.0023622783288375663;144.0;0.12064747316466573;0.04857499504810528;0.0023649521258656526;146.0;0.1209034695359421;0.044582899691604845;0.0019931366105165787;158.0;0.12900545775892036;0.051535166295070614;0.0026577520268215105;163.0;0.13040225968877966;0.05106457110836715;0.002609445875030216;152.0;0.13189529592384813;0.046269146092307374;0.002144959908339486;154.0;0.1284383213486031;0.04366931490589543;0.0019109383559181765;156.0;0.12671765617176642;0.043729903004181475;0.0019165445578922368;160.0;0.12612804585563733;0.04586800560746355;0.0021097477910101054;161.0;0.12852949495954938;0.0496115199121018;0.0024680051204499483;165.0;0.1338471965983132;0.04995108741648165;0.0024984585896978577;155.0;0.12763472483019395
0.0432465209815791;0.0018756592731165945;153.0;0.1125583906968877;12.0;0.04289868134664204;0.001845572189040446;146.0;0.11133019221488917;0.041884406652427035;0.0017594867860453276;160.0;0.11026835682426708;0.036765387331698034;0.0013558536957652728;150.0;0.10354865864882656;0.0339311075157927;0.0011549043305930356;141.0;0.10153980858839269;0.0319348268149377;0.001022992716009426;144.0;0.0994877616492509;0.03131006309586083;0.0009829135104864823;152.0;0.09723446389034424;0.050814826382254326;0.00259009507074046;152.0;0.12319225052763014;0.03423147971849501;0.001174863884117524;155.0;0.10277504647412247;0.030410095684684915;0.0009274938941714684;153.0;0.10132838958138006;0.02889636931969281;0.0008375286440902253;149.0;0.10323242859655452;0.032526771693966075;0.0010613749931474158;144.0;0.10535588409932184;0.03803914931122027;0.0014516414297684;132.0;0.11167270500528172;0.04758131733402557;0.002270825470342863;140.0;0.12066759751532809;0.05357899890522238;0.0028797160627096487;139.0;0.1276334299991427;0.02976085979838598;0.0008876349438571285;162.0;0.10001899117180965;0.0698584053517911;0.004895329858435338;150.0;0.14405073831936044;0.07149037330961525;0.005126238612735432;141.0;0.1407919986180536;0.06784246495370586;0.004616827838420032;148.0;0.1350600834465889;0.04999079506755925;0.0025071946392972878;146.0;0.11875748068985822;0.04999222848277192;0.0025073627198329215;144.0;0.11908518224148762;0.049890926126290897;0.0024972066570337816;148.0;0.11868689201898354;0.05014111745940806;0.0025222451986072836;148.0;0.11921717755077486;0.050993470012879204;0.002608791393748389;148.0;0.13400999578891268;0.049648889263052436;0.0024733446992584265;149.0;0.13105521625087438;0.050677968050423176;0.0025769578159823723;144.0;0.13333213219777743;0.04635871839741179;0.0021564303683335663;140.0;0.12886509794416165;0.04292261490323274;0.0018485043771981622;138.0;0.12546527533413213;0.042816081334342095;0.0018393132353519595;135.0;0.12655290066839947;0.044482750831599825;0.0019851768252416293;143.0;0.1282308386018782;0.04893496354275001;0.002402156156060419;156.0;0.13355281823228562;0.045867543392664495;0.0021109149754426483;144.0;0.1258885420544363
0.04298906305595082;0.0018501944961711952;163.0;0.11053046579609464;12.0;0.042476218013853075;0.0018072209793884779;152.0;0.1090914473052431;0.04200334715992851;0.00176797236999677;163.0;0.10811040786234222;0.03721034281854918;0.0013866013859954976;155.0;0.10322171702856896;0.03440837822638139;0.001185005120024658;152.0;0.10037398416687361;0.03167011241638113;0.0010037456958255308;153.0;0.09723978112207454;0.029894373329518453;0.0008929277233030128;163.0;0.09489401770822757;0.04787270758499146;0.0022959168764620855;165.0;0.11990462906043124;0.030095706559719576;0.0009087113804261874;154.0;0.09792787161155175;0.0280749716748695;0.0007902024091313137;144.0;0.09776886219790634;0.027175403546239277;0.0007402066003840298;148.0;0.09964325357218251;0.02793434980430472;0.0007823723739589277;156.0;0.10002187888078677;0.031377604629787566;0.000987229057045167;152.0;0.10527362461105218;0.038848324226871886;0.0015138314319281946;151.0;0.1132076019546133;0.043317969792407936;0.0018818420975421294;155.0;0.11951026357316183;0.027882333436296005;0.0007798191927843381;158.0;0.09728733055502847;0.07464194181160816;0.005586486943321141;145.0;0.14902808753831231;0.07303020728763161;0.005347050392816626;139.0;0.14589755446343688;0.06895687953768276;0.004768016517564052;142.0;0.14069018474012734;0.049884712785623904;0.0024956457996919545;154.0;0.11984176163615537;0.049826826518249476;0.0024899269974286054;150.0;0.11998949193956293;0.049967343847656845;0.0025040232560574805;154.0;0.11981166211175964;0.049966772735691674;0.002503725332338867;151.0;0.12005437564367248;0.05528872576879609;0.0030656830131194;146.0;0.1351909017262755;0.054818513654142996;0.0030090470870746087;149.0;0.1298817778439657;0.055106162386559285;0.00304242841429183;156.0;0.13072185891890176;0.050640162232494734;0.002570587505091787;147.0;0.12722640276038383;0.04674773205842204;0.002191110090633782;141.0;0.124828914818412;0.04569815529764412;0.002094511938435781;131.0;0.1256725174524579;0.046107202771562335;0.002132447579759764;144.0;0.12681015223981074;0.050226501796821366;0.0025304185194516887;152.0;0.13170522689890024;0.05283498746225682;0.002797826928979212;148.0;0.12857298591478175
0.04213674968214226;0.001781078671741691;153.0;0.1087628162875982;12.0;0.0436622527144541;0.0019123534623866811;149.0;0.10775675628541886;0.043606211989813494;0.0019073214018419519;157.0;0.10649752048873418;0.03904831098241755;0.0015295719169041433;163.0;0.10342167368621298;0.036486511907754045;0.0013355929491061713;161.0;0.1026501194779648;0.03390194969902824;0.0011530964261172374;158.0;0.09984972280996232;0.031811753233836844;0.0010152992327136182;162.0;0.09852691594870905;0.04390296797578903;0.0019337011203601395;154.0;0.11862449482532808;0.03363453809202711;0.001134974465163962;145.0;0.09734766797578907;0.029780436405702843;0.0008897692233728599;136.0;0.09662702629799551;0.02735914916091466;0.0007508862187816961;151.0;0.09747961055168419;0.02579084678088182;0.0006673182720226339;159.0;0.09713848723811393;0.02796830260485662;0.0007847852193128349;165.0;0.10060546281162583;0.033379553122409304;0.0011177088070994192;156.0;0.10944695417816726;0.038099908150686056;0.0014563148132780413;160.0;0.11765033734803142;0.029364844412552733;0.0008651078126672434;146.0;0.09564206005291874;0.06448441104943081;0.00417157408676956;144.0;0.14048941010021737;0.06684134673996021;0.004482424252780252;148.0;0.1398829979102927;0.06271922186257808;0.003946623121738264;151.0;0.13612968838256526;0.04461657564928738;0.0019971634562656318;156.0;0.12078690856318772;0.04439762057223941;0.0019774956734152976;154.0;0.12056353227776702;0.04440606755781568;0.001978312255014001;157.0;0.1203739831778801;0.0445782208171187;0.0019936995165313145;157.0;0.12072647141604327;0.045265581316630894;0.002055467470967698;141.0;0.1240251111807151;0.06316084616687696;0.004001929965974589;154.0;0.12874476567265838;0.06316670944835444;0.004002308070240833;156.0;0.12811046156786146;0.05642054429691426;0.003192113584310499;157.0;0.12460642211862635;0.04830822056306672;0.002340041585400078;153.0;0.12187195056996006;0.04508386113321825;0.0020378614994027208;146.0;0.12057179720251056;0.045659299122520196;0.00209076096808369;152.0;0.12126027036951134;0.04958178997555487;0.002465475141765422;147.0;0.12544059768708213;0.0595149320199613;0.0035528747322934305;158.0;0.12725279282873114
0.03573197545435007;0.001280944241825835;162.0;0.10702296979503446;12.0;0.036630426515905166;0.0013462561105912578;157.0;0.10468861338079126;0.03521354098598848;0.0012440883109537332;162.0;0.10377789562250274;0.031938787713906666;0.0010234731392694263;162.0;0.09944555732691988;0.030434455948938087;0.000929335928650045;152.0;0.09892007478291427;0.028675438238024563;0.000825018946470375;155.0;0.09741434663704146;0.028136263046556333;0.0007940940119363769;163.0;0.09598491923780116;0.03697080073370879;0.001371384490503547;147.0;0.11351275445243492;0.0307714366184494;0.0009499500952929002;148.0;0.09257825697208653;0.027171341076985236;0.0007406682559271094;144.0;0.09273378293308825;0.02561492716576011;0.0006582575156919572;156.0;0.0938802528578019;0.025513591437746237;0.0006531133564444678;159.0;0.09556067441862849;0.02923117690832174;0.0008572022509808817;165.0;0.10174601190101666;0.03397938415058816;0.0011584405302040009;165.0;0.10981347458990631;0.036369901374413025;0.0013271706682062548;158.0;0.11559501903902276;0.027128543553274105;0.0007383766565950299;152.0;0.09153900282857894;0.06740240692124352;0.004551509607068;156.0;0.1433760014839563;0.06844564502548443;0.004689973322056884;161.0;0.13861782321297958;0.06128462731544819;0.003760446016478863;174.0;0.13259716044966247;0.04499051275503543;0.0020269625426474294;167.0;0.1233664792904412;0.04474624516613053;0.0020044228617935598;164.0;0.123277533497069;0.04475346660441549;0.0020050659304127814;165.0;0.12324217098777833;0.044815494720709524;0.002010934621228856;167.0;0.12347323777431209;0.04680924497306052;0.002195384610730063;158.0;0.12806777254953186;0.06417884298266512;0.00412034799564678;163.0;0.12765267101767053;0.06442592860236633;0.004153505097134429;161.0;0.12754631543842262;0.05735779183672777;0.003293557445678058;165.0;0.12442799864677476;0.04858335252022516;0.0023645964711188332;159.0;0.12188423181649431;0.045636634885244685;0.002086236844288992;157.0;0.12189493479714346;0.04736276212863398;0.002247973510189121;159.0;0.12506966728480934;0.05115487563128075;0.0026232845093125817;155.0;0.13031227502339213;0.06392853489575277;0.00408750137669909;166.0;0.12778937945151944
0.09232540274800881;0.008537645029617182;158.0;0.14910573497304203;12.0;0.1033284683690256;0.01069987881206136;156.0;0.15196324943784392;0.10783060267320893;0.011649814449563681;155.0;0.15257218584502893;0.10135011258259215;0.010290615173868421;150.0;0.14718691225576971;0.09523723726332546;0.009087759559824828;143.0;0.14387356554395958;0.0903620976852936;0.00818086698077043;147.0;0.14110403945394373;0.08540339601999605;0.007309529461429917;156.0;0.1381989226365494;0.07772984016475609;0.006045004157441829;147.0;0.14732449093926123;0.09239696836871253;0.008540782587676602;137.0;0.1358997497640866;0.07848653583903462;0.0061642139968640245;149.0;0.132638194380945;0.06949485108395448;0.004833794299922689;149.0;0.13157597037795835;0.06558281578972149;0.0043048217099499455;154.0;0.13202422019100016;0.06556764412978151;0.004299674735675772;151.0;0.13779950520790327;0.06766737685214376;0.004582029796811754;155.0;0.14446064809044218;0.0717709310647953;0.0051511829286990055;143.0;0.14875172338621503;0.08963916221527213;0.008042830029648082;142.0;0.1352253289941196;0.09563732500237605;0.009175963914592602;162.0;0.16749743765640784;0.10632696748637914;0.011341112863141283;163.0;0.1662526347396017;0.11297085550426746;0.012801641063316608;168.0;0.16756675734296114;0.10670862802667436;0.011423901296483468;169.0;0.1664385725360295;0.1066682224176117;0.011415182619625147;166.0;0.16615503123132325;0.10686001249298718;0.011456136173724926;165.0;0.1666259427457761;0.10665771082324343;0.011412855962316384;166.0;0.16645931894111748;0.0880181780838326;0.007772560787050786;166.0;0.16252831428366588;0.10113363978227546;0.010261506909677648;156.0;0.16515999994297817;0.101636394778264;0.010363657005047162;161.0;0.16592608659408115;0.09485276618506201;0.009026109219730752;173.0;0.16287237039105004;0.088432479376294;0.00784567105569738;165.0;0.1617532622107077;0.08658628571190397;0.00752158202155653;161.0;0.1616312933948498;0.0901961096268742;0.008161594050649508;163.0;0.1641605920347001;0.09467738881981295;0.00899267936769892;160.0;0.16779528709524855;0.10035378926619448;0.010104010307950025;161.0;0.16281815653336015
0.12620572852853032;0.01597998385318319;155.0;0.17764204578572945;12.0;0.13685731873415527;0.01879106190529784;155.0;0.18213047317343875;0.14032097358520565;0.019754155925761477;155.0;0.18245356022430467;0.13242353259229275;0.017593331033884108;156.0;0.17691470238514934;0.12533842156469452;0.015760968438441478;152.0;0.17297969496310123;0.11932482254022178;0.014284910205246594;151.0;0.17001822214836423;0.1129329440373558;0.012795507622802887;154.0;0.1664077085594758;0.1107818284074321;0.012312737674370232;156.0;0.17524812290844768;0.11348328714514161;0.012920499929146118;136.0;0.16216222501624164;0.09879172638007533;0.00979165048802589;149.0;0.1581073447039939;0.09107143826122548;0.008321030900127962;146.0;0.15661369572348055;0.08756367347976525;0.007692183592832867;144.0;0.15488752872764852;0.08790619249367414;0.00775236448195993;144.0;0.15842617573829906;0.09187837423199073;0.008469183877447372;148.0;0.16476391623030467;0.09838136770138618;0.009710543217980452;147.0;0.17134950962523532;0.11245636297436493;0.012687731593859207;146.0;0.16108767069152305;0.11997969391535486;0.014440153153663125;158.0;0.18440616932014903;0.13271638616594944;0.017665520569069414;159.0;0.18609914054359716;0.1400376850224786;0.019670543201342806;159.0;0.18841113034471524;0.12875958131027213;0.016629306896100766;153.0;0.18522888519292235;0.12883744244109777;0.016650354337393203;154.0;0.1849387249782695;0.12901600737589256;0.016696043069059127;150.0;0.18555456419542726;0.12876023909045045;0.016631080003283727;152.0;0.1849243806981123;0.11220857528667383;0.012630345424873162;150.0;0.18297771864783202;0.1721327611072112;0.029698073815742656;148.0;0.1963843387593899;0.16713263335360617;0.027991467706869482;149.0;0.19611500041256488;0.14964265517054803;0.022442355336321152;158.0;0.191422777187353;0.13298922234639207;0.01773582297614181;152.0;0.18739875698138017;0.12221235976604215;0.014979218802840068;147.0;0.18499489646775663;0.11899664867110334;0.014201942220799168;151.0;0.18522741188541858;0.11891715649980329;0.014185640821989915;151.0;0.1877551749569823;0.16694560222652094;0.027926318830075115;157.0;0.19461081483484707
0.10474127328985319;0.011006435997575092;154.0;0.15527810773365924;12.0;0.10772058210959058;0.011641507237780081;160.0;0.15378760016598977;0.10602145807659567;0.0112768399172609;157.0;0.15188862220568186;0.1012770981710365;0.010290438028552595;157.0;0.14858062846247447;0.09784474350945473;0.009604653637516988;155.0;0.14763525101892505;0.09435180677174618;0.008931281508650853;154.0;0.1471042233697136;0.09192196975890547;0.008477263284893;156.0;0.1455962177076816;0.09889951210195881;0.009812031907818675;153.0;0.160838123019398;0.07381478701996981;0.005447945541434362;155.0;0.1412147475783821;0.06763191009759344;0.004572301897598321;156.0;0.13938528166217787;0.06662010494792785;0.004439791813566072;155.0;0.13893132897318586;0.06683990977797322;0.0044670761651299335;146.0;0.13794871407752887;0.07001493222192953;0.0049002822158365;149.0;0.1429653083840536;0.07664957908571254;0.005876088119300879;156.0;0.15095680334874595;0.08256110608706782;0.006823996033189404;162.0;0.15709820569748018;0.0750848122998152;0.005644526651219994;162.0;0.14087797808562633;0.10656320157913193;0.011392810936655992;146.0;0.17525176459903202;0.1147254553930457;0.013205196038786827;145.0;0.17865009623462572;0.11659553237351859;0.013639222223544403;146.0;0.17672207746584306;0.10189520877514266;0.01041668961032547;135.0;0.16277276225928738;0.1020287301957601;0.01044403664887197;137.0;0.16265358675395736;0.10216074153928366;0.010470971763023152;134.0;0.1629734436564969;0.10192101190814681;0.010422000818677578;135.0;0.1622587368484641;0.09347377044343153;0.008765922242390317;142.0;0.17113947521209238;0.16001765852968608;0.02568900909066344;163.0;0.18388226723515108;0.15399280929064585;0.023791086552886885;159.0;0.18331699640295102;0.1356170140995013;0.018451832435901185;153.0;0.1773677019049898;0.1171263073196982;0.01376209207770151;155.0;0.17078916441360956;0.10360994878794971;0.010769063749360154;150.0;0.1678679401369133;0.09592322879267566;0.0092306907669867;153.0;0.16678827019074247;0.0927027039358139;0.008620658647268856;152.0;0.16861491692124891;0.1559466088062992;0.024398824123610833;161.0;0.1845373584344603
0.072290516401981;0.005242937895508156;159.0;0.14098675653965612;12.0;0.07300314330063705;0.005346796114222701;174.0;0.13639708908127282;0.070720038343344;0.005017667368459624;171.0;0.13216783835865162;0.06824791534027211;0.004672796303193063;169.0;0.12844869863680466;0.06666013605744067;0.004458079330762928;168.0;0.12701750509479473;0.06473896473562166;0.004204722400117102;166.0;0.1269285099080747;0.06476447681935689;0.004207738585239539;174.0;0.12565494527814136;0.07264846121159962;0.0052949122155985;152.0;0.1495262342830571;0.04063055449797605;0.001656200362163029;156.0;0.12545616997172532;0.03737548603701969;0.0014012864669807343;157.0;0.12417837461640104;0.036897726440066024;0.0013653071442325012;159.0;0.12488579325983523;0.040035325075841746;0.0016076670095095836;159.0;0.1267304382313945;0.045672983012695505;0.0020925675615055;157.0;0.13360715041637172;0.054870628678834764;0.0030206162393187044;160.0;0.14413240912226177;0.061943219247422576;0.0038490370031127466;158.0;0.14999480580454658;0.03886910428165881;0.0015154894635839085;157.0;0.12638245700259285;0.0851121250806954;0.007267473597326008;138.0;0.17090492633756146;0.09152495401954638;0.008404147140164887;136.0;0.17289379986676584;0.09046735835329399;0.008211202056293426;139.0;0.16693937135868972;0.07857506096941011;0.006190535856160909;146.0;0.15185016923328373;0.07861058112730819;0.006197094181559443;145.0;0.1518793233689983;0.07868575630783704;0.0062083649189744895;146.0;0.15174942647879083;0.07858444154157408;0.0061927885208029245;144.0;0.15137808642632686;0.0697941708547777;0.0048864616054035285;146.0;0.16205415135198942;0.08594918550988963;0.007393352859058356;162.0;0.16720500089595672;0.08649997587151094;0.007484398337939741;161.0;0.16756926337812836;0.07997645844702424;0.006404189728515593;154.0;0.16323490134707366;0.07099557040507065;0.005051299591068542;154.0;0.1575014050221748;0.06575871407824718;0.004335884022874304;153.0;0.15572324112513164;0.06418197913561968;0.00413122841500451;154.0;0.15571035003054648;0.06619126648389755;0.00439513628698216;153.0;0.15842102633668934;0.08368743087972061;0.007013113804136023;159.0;0.16405582760056553
0.05426385561599942;0.0029435883570737465;163.0;0.13414321723298933;12.0;0.055553348228544755;0.003084548248783033;173.0;0.13179249143657662;0.056152869975513185;0.003153524298969855;167.0;0.12895320280549943;0.05321525737737456;0.0028301009097775765;164.0;0.12424705235473596;0.05108295399408748;0.0026085597987521845;168.0;0.1203178128436713;0.048369980927489696;0.002339446823047979;169.0;0.11874742874630759;0.04656304611138462;0.002166262620160967;173.0;0.11433212883984012;0.058603349095547916;0.0034374122486207294;160.0;0.14250422323659875;0.034125983157410944;0.001168337230070355;159.0;0.1164047902811124;0.03235838724400741;0.0010501695040775756;156.0;0.11638942125951317;0.03387505113772291;0.0011511812882941514;167.0;0.11753115864127267;0.036542807080676906;0.0013394236902695017;168.0;0.12103844055590918;0.04195628728080547;0.001765003459915229;166.0;0.12782075995847145;0.05025461794762827;0.002533217970153089;166.0;0.1367816135547553;0.05648456403022085;0.0032004313519013615;160.0;0.1438206452127889;0.03248872349689399;0.0010589711318961387;158.0;0.11640964630189582;0.07355130700091692;0.005420488513866018;142.0;0.16185723742931168;0.07775942896807356;0.006055309092519103;150.0;0.1600755736774141;0.0728435461542133;0.005316793567153233;150.0;0.1524902268277144;0.0630401847688024;0.003986835564338873;153.0;0.14551029579107796;0.06321960019906804;0.004009099895650087;152.0;0.14566363521392267;0.06297472043109444;0.003978454697061906;151.0;0.14532265023789973;0.06294026386474723;0.003973962428946225;152.0;0.14537512805781092;0.06052539458245568;0.003674239226752504;153.0;0.1554182648885819;0.06857655682477504;0.004717947640549839;156.0;0.15507783680639095;0.07001016572828883;0.004916965088175425;155.0;0.15547943052764715;0.06676479426716814;0.0044705507442377645;155.0;0.1527954223836916;0.060731717586132945;0.003699322942036917;146.0;0.14961808497536835;0.057192658026637755;0.0032803556842318916;149.0;0.14822246517111984;0.05612230065901787;0.003159259665702569;149.0;0.14745369318612345;0.058035300227900787;0.003376992000277187;153.0;0.15111508522072664;0.06547426382279713;0.004300397192318066;157.0;0.15155940321775416
0.03876804999722641;0.0015064243953895981;147.0;0.1150047236794559;12.0;0.03844715921040043;0.0014817834258291946;150.0;0.11163721243901698;0.037957324064726725;0.001443885965224754;138.0;0.11000778790985827;0.03568500550547936;0.0012757961692706527;136.0;0.10725125412811987;0.03439767750520977;0.0011856947334232318;149.0;0.10502328106964647;0.03244301668157977;0.001054521112263958;151.0;0.10362966793852271;0.03160457883830968;0.0010006910782651077;149.0;0.09988678260284566;0.04740524479652306;0.0022544872611059076;146.0;0.12519520419588984;0.02696773699957309;0.0007296564536685376;159.0;0.10505213057800193;0.02553789879548065;0.0006542450526425049;164.0;0.10510754215024737;0.027366681760745363;0.0007513679668543171;170.0;0.10475928905051542;0.027672870491371147;0.0007682894704922591;165.0;0.10684182125349863;0.032655481588466165;0.001069874904084191;167.0;0.11293474616185689;0.03739506327213183;0.001402683040473362;162.0;0.11872018009555867;0.0416560656820665;0.001740630859056746;151.0;0.12444475453781867;0.025816082591705206;0.000668639859070913;159.0;0.10467895021451963;0.06758117777636385;0.004581764133606927;156.0;0.15379994215243617;0.0676011411960284;0.00458193302694242;171.0;0.14896736577183153;0.06406124924266958;0.004115446424341441;166.0;0.1451946510178013;0.060377396504997606;0.003657217552822241;151.0;0.14274198353217302;0.060268892447413375;0.0036440503354467114;151.0;0.14275661432877182;0.060076686824494525;0.003620846814476019;150.0;0.14249100904729198;0.05992991671051945;0.003603213042575334;152.0;0.1423897079654965;0.058154458285049;0.0033929731151797348;159.0;0.15147631373876838;0.062095022014172704;0.0038674746146876732;154.0;0.15205459102287175;0.06225313378478689;0.0038868384321912065;154.0;0.15225700470110537;0.05881325982991839;0.0034691581659945046;157.0;0.1481065585195312;0.054451170405424965;0.0029742678130774266;155.0;0.14478181772726628;0.05245631473673479;0.0027606591766514378;154.0;0.14370180750571185;0.05193122642472169;0.002705580036256681;151.0;0.14420453212451714;0.054661735294034376;0.0029972220802244394;150.0;0.14823279731097228;0.061304566586237313;0.003770337154233748;153.0;0.14813114293085808
0.039733992167131645;0.0015828716369112718;133.0;0.11559386309404204;12.0;0.03874688668374566;0.0015054696956994398;139.0;0.11029790441987668;0.038457640801947815;0.0014834516857964524;135.0;0.1089601546059804;0.036601429777691194;0.0013438141356277651;135.0;0.10772216567497488;0.034380574824575974;0.001185611067752323;143.0;0.10566314951921517;0.032328300148679;0.001048328846996387;148.0;0.10409968662006884;0.03061319129588207;0.0009397742487156482;153.0;0.1017484232161994;0.04920929132166229;0.0024274526976305714;143.0;0.1279733800629326;0.03196989188723541;0.0010252222400544207;151.0;0.10277030889191197;0.02606539502514717;0.0006811635375692126;153.0;0.10171479569340561;0.025405607936333174;0.0006471301839333969;153.0;0.10140438709441194;0.0251297305989469;0.0006329570604109807;151.0;0.10305371573541063;0.03045847468399815;0.0009302600821095337;156.0;0.10936916422234975;0.03558002957908303;0.0012696959249422796;151.0;0.11677049984933721;0.04350597997450406;0.0018979004638013447;140.0;0.12412711643899509;0.0280423185390214;0.0007888860679294344;156.0;0.10056451946498411;0.08284161360736024;0.006883930580942132;156.0;0.16294930131441449;0.07492605935985867;0.005631433801310732;167.0;0.15497346463339354;0.07065553963808456;0.005008050677905541;169.0;0.14849670420788244;0.06277089123339577;0.003953037524928422;153.0;0.1397110607864705;0.06243672193008704;0.003911075378584558;154.0;0.13962461459475897;0.06259316627954671;0.003930674963390885;154.0;0.13918488856742645;0.06236866835900611;0.0039025378678970747;152.0;0.13897502645435061;0.07314782104457027;0.005367108207589563;153.0;0.15425948073160306;0.0822246879108754;0.00678291692135564;161.0;0.15258090200681723;0.07915435995088685;0.006285787458676122;153.0;0.15133511424749618;0.07244886698210284;0.0052656844620131635;147.0;0.1473203652071287;0.0678695137925441;0.0046212083364082415;150.0;0.14325953181810708;0.0669944929463345;0.004502682671267711;158.0;0.14299247872436202;0.06941649776610608;0.004834220250890265;156.0;0.1465855312270102;0.07414960797309303;0.005515957436487728;150.0;0.15284229065638946;0.0783314130115595;0.0061544635924779875;168.0;0.15007510064587648
0.03844921823892138;0.001482279803032559;152.0;0.11580941289416972;12.0;0.03737343794996883;0.001400714316760683;147.0;0.11170419237981077;0.03824515337227655;0.0014664529090257683;149.0;0.11024224517630259;0.03596590202515108;0.0012970868503942182;149.0;0.108104217937146;0.03402953232393202;0.0011612763569490644;150.0;0.10591688874352746;0.032504102438700465;0.0010595581683190208;156.0;0.10442681551684631;0.030265030895464715;0.0009184177435015468;166.0;0.1026437161978433;0.04596037887961171;0.0021184858504078954;149.0;0.12744407924255988;0.03178257660615364;0.0010130004677508073;162.0;0.10201156295888147;0.026534122759771742;0.0007063184504309223;154.0;0.10044815540457756;0.02609799102373059;0.0006831667817372616;158.0;0.10133643787580592;0.026109859355456542;0.0006838954093218934;155.0;0.1032681387929249;0.03057712631174448;0.000937569253937389;154.0;0.10942185822291849;0.03733973974902125;0.0013984155967562265;161.0;0.11863561418075558;0.04501374188510804;0.0020326616825568746;156.0;0.12437509521706001;0.027176807945699037;0.0007408975982553435;164.0;0.0989836670740032;0.07624425193007936;0.0058317419769292325;152.0;0.1565532468941305;0.07112357062407612;0.005073801244923116;163.0;0.15238603621428304;0.0673627739921566;0.004550895389659093;166.0;0.14483885813294076;0.06197892219836522;0.0038532924349982877;157.0;0.13587749316279416;0.061932438969277435;0.0038474286020234575;158.0;0.13586992950003818;0.06208334475315299;0.0038662487808661587;158.0;0.13564975927314743;0.06209779873352312;0.0038679775199793286;157.0;0.13600095213837024;0.06585899642897276;0.004350630332463376;151.0;0.14617925397417636;0.07690176688824281;0.005932949415411785;160.0;0.14499203456160503;0.07513665415432491;0.0056638182915194225;145.0;0.14600306883581132;0.06936881244893099;0.0048276916519183356;141.0;0.14420767243318738;0.06515227844706936;0.004258208095747198;148.0;0.14195946125115508;0.06373812804684867;0.00407533145829815;156.0;0.14213249415909718;0.06567261020367407;0.00432696775794853;156.0;0.14434780610329445;0.06971674557162717;0.0048763096267373665;156.0;0.15017364011288484;0.0732234977648597;0.005379091565929142;166.0;0.14277967841916106
0.034156075363963694;0.0011700629465982177;158.0;0.11097459782437692;12.0;0.031860065214554055;0.0010176280047512953;146.0;0.106084408949848;0.030930441930266714;0.0009595675477685529;148.0;0.10300909638850479;0.029053403113658637;0.0008461951590708123;149.0;0.10021117517551897;0.028295846010810047;0.0008027579422228438;144.0;0.09865728530960259;0.027632490824449296;0.0007654780740549322;150.0;0.09795082469654837;0.025396133714437892;0.0006469021955946118;158.0;0.09643808783374411;0.038668505285850634;0.0015001205065744733;149.0;0.12125381047874416;0.028013380179502476;0.0007873137834297763;153.0;0.10052555522208738;0.026123391387082202;0.0006845984313344097;159.0;0.09963013741801519;0.02524208360702561;0.0006392481969508902;160.0;0.0999043472789339;0.02580151739520605;0.0006678798953093492;163.0;0.10226500090916173;0.02957882336084757;0.0008777071121521931;154.0;0.1093605717419525;0.034535039145892996;0.0011965673185986164;160.0;0.11744649336922883;0.0393715267641739;0.001555182112921099;153.0;0.1210003889848654;0.024484574524604834;0.0006013993442959914;158.0;0.09747520546876708;0.05498852442177375;0.0030336465571037586;159.0;0.14269692077249957;0.060856124743046344;0.0037157322080381937;168.0;0.14435999944127462;0.06000404087538942;0.0036123717314478043;161.0;0.14337624521391756;0.054167929546322824;0.0029421190795557396;162.0;0.13713928648766302;0.05425730601446009;0.0029519399752705178;163.0;0.13744850105279122;0.05417983840839248;0.002943588271309473;162.0;0.13756481210100446;0.05426770846581224;0.0029532613544868825;163.0;0.13748808714518926;0.0464204279641883;0.002161975141511545;153.0;0.139010357080055;0.05090319633144409;0.002599609354109707;158.0;0.14515175293581725;0.054416840706267705;0.0029707527633161496;146.0;0.14720511214682816;0.05257853000259892;0.0027734617016771964;142.0;0.14494688501229314;0.04907372017065292;0.0024160949402120867;146.0;0.14475375278348096;0.04678812954639245;0.0021963584166595483;149.0;0.1435254809490056;0.046255631454275074;0.002146651227404043;155.0;0.1428141380995213;0.04909196073256569;0.002417933919931778;162.0;0.14556116674570435;0.050926335793221714;0.0026017491917882263;149.0;0.14287139616418493
0.03955410848777328;0.0015690954101585364;152.0;0.11408070318693474;12.0;0.03922099439657981;0.0015423339166666333;143.0;0.11029336053647239;0.038601137465388624;0.001493971025048902;139.0;0.10752305075708347;0.03628116834109736;0.0013195934736746442;138.0;0.10549882609064977;0.034174322435624065;0.0011709145117270792;133.0;0.10317863133245865;0.033035772279502745;0.001094563133678772;140.0;0.1019560763888718;0.030318195006118563;0.0009220301571700725;139.0;0.09918244709389985;0.04398926733802439;0.0019407440329869325;156.0;0.12730924927061615;0.03120050965829306;0.0009757691024919651;147.0;0.10389736743976934;0.029101535626092374;0.0008494692727170535;154.0;0.10364124311482045;0.02767525919382654;0.0007679167001546258;148.0;0.10356377140397716;0.027860536609568894;0.00077876125150444;161.0;0.10477222955428814;0.0322548775163665;0.0010432637083899357;153.0;0.11115882516870085;0.03679835967343749;0.0013585132622281723;155.0;0.11789958403301223;0.04242522920462206;0.001805148331353937;153.0;0.12420644897493925;0.030047090383364894;0.0009056377649150973;147.0;0.10083212020079765;0.07218975757043852;0.005227114430681425;154.0;0.15720875450302707;0.08207327314203036;0.006756996071171802;160.0;0.1600468059333301;0.07797796232435299;0.00609907463643978;155.0;0.15638671916222244;0.06488418859339957;0.0042234223875684965;159.0;0.14884749955937443;0.06492571389534378;0.0042289144818447805;158.0;0.14916639045685665;0.06491818226553488;0.00422764200043042;158.0;0.1491004114657362;0.06476102884308134;0.004207180992311884;157.0;0.14897889916466212;0.05579411557292345;0.003122702030738781;143.0;0.1490067879592581;0.06816043163950848;0.004660848750603187;159.0;0.15337231092436932;0.06857724837545487;0.004718322540731023;155.0;0.15408495250821128;0.06414483711780898;0.004128009827508421;137.0;0.15000667794149336;0.0579922714995309;0.0033741727850338577;140.0;0.14857160548645446;0.05512090596773451;0.0030482615308858093;144.0;0.1464021398435251;0.05544442143745754;0.0030840679023565595;145.0;0.14517606889292226;0.05833555669010637;0.0034134526666021216;148.0;0.14580427232784424;0.06387496407437399;0.004093267259025387;153.0;0.15231147883718738
0.11667910616836406;0.013658603128491185;153.0;0.15978946835264418;12.0;0.1315183488085148;0.017353321572820594;149.0;0.16377181046061967;0.1308518810524522;0.017177818892099486;143.0;0.16250266671346175;0.11677070768984504;0.013679934235760527;144.0;0.1581483706096085;0.10718318614988195;0.011525912833066232;147.0;0.15377120747604348;0.09726001812704281;0.009490506382320239;152.0;0.14925359252711795;0.08926644461731008;0.0079947358054884;156.0;0.14457055112904138;0.09338544023735479;0.008749175567750884;162.0;0.15946519879060955;0.07283592047896638;0.005321183754663214;159.0;0.14302643322066624;0.06917992628655237;0.004801375373931152;155.0;0.14360699494948578;0.06640103462411005;0.004423663906448085;151.0;0.14248835773099824;0.06435803642741744;0.004155347133618677;158.0;0.14170108610498022;0.060932378126635545;0.0037246962352219925;155.0;0.1421902079832679;0.06515637220191321;0.004257798401771436;162.0;0.14528510408427395;0.07556065016647645;0.005726959331669819;164.0;0.15009579870596676;0.07060682412006941;0.005000510709450394;157.0;0.13957853467553966;0.09029061216308985;0.00817904708607681;157.0;0.18022856168559118;0.1013187529006415;0.010299041515712782;159.0;0.18172633666685453;0.10535701309067107;0.011136205986596375;159.0;0.1793110024909176;0.10709524046575854;0.011504231333620586;162.0;0.17723188403045287;0.10691999897425492;0.011467487743605476;159.0;0.17729898902444213;0.1070786912249831;0.011500911894477245;161.0;0.17709504675373863;0.1070180761351772;0.011486828018396745;159.0;0.17740298976147276;0.08044324628459242;0.006491171621817732;146.0;0.17395305665253202;0.08938355123140426;0.00801467928091446;150.0;0.1713148129414;0.08990745614301314;0.00810870464495;157.0;0.17228541908346648;0.08710265787953667;0.007610637362262017;147.0;0.17136315228625862;0.08169209364311517;0.006694505555350594;149.0;0.17069369598863537;0.07914970888679973;0.006284887417040896;145.0;0.17092935940697304;0.07928070292046961;0.006305537834141914;144.0;0.17099074569737413;0.08147976402094684;0.006660296519790116;149.0;0.17291458210596378;0.08845828699121146;0.007844205699849763;148.0;0.1713174482619846
0.1255876858772194;0.015822603688944097;135.0;0.17457539918424383;12.0;0.1419632059571016;0.020218762280513083;132.0;0.17862037754842403;0.14145925820858063;0.020075967195164215;134.0;0.17727797664163622;0.12595894178936198;0.015917521548156347;134.0;0.17132017692251458;0.11526763194109306;0.013330020919474599;143.0;0.16614690058277112;0.10439984299579855;0.010934883429964662;146.0;0.16015670061470247;0.09629320797459201;0.009302678650105478;152.0;0.1559088681411186;0.10184673286502448;0.010405182716192271;156.0;0.17300005403725252;0.07667944427563748;0.005898391845704188;159.0;0.15483006751490924;0.07268219308672079;0.00529958381497524;156.0;0.1560642504127203;0.07020103126294183;0.004943590973817861;158.0;0.1562906799643942;0.0694284614952777;0.00483529763890386;155.0;0.15709436256312254;0.0675501814428686;0.004577600249839192;154.0;0.1596939718178603;0.07186237113269262;0.0051808801746419195;157.0;0.16273292782035406;0.08080485447021864;0.006548971722233168;159.0;0.16414327854691144;0.07355353557318653;0.005427681003141007;155.0;0.15122318280864788;0.08160390561834222;0.0066809419429163805;159.0;0.17280851003746084;0.08905749805916496;0.007956834782336537;155.0;0.1682111490755312;0.09867919829610856;0.009768235752979422;157.0;0.1674292862035646;0.10354344132454202;0.010754596047974284;169.0;0.16475860539788467;0.10345267880560838;0.01073346637906529;167.0;0.16513153431275143;0.10343165877991371;0.01073018461770775;168.0;0.164500319543638;0.1033779978508114;0.010719768727297043;168.0;0.1646404059585397;0.07906236817430293;0.006271259387306538;156.0;0.16831226222303428;0.08296314244949235;0.006902823328095664;142.0;0.1633077753302718;0.0830992636164292;0.006925446264080881;145.0;0.16320634449272417;0.07923388410184519;0.006297528530048777;157.0;0.16124160269821117;0.07450592761579097;0.005568054394834232;150.0;0.1609238533809459;0.07276065423149693;0.005310498990950742;147.0;0.1622942086697213;0.07344517579824444;0.005411360582733801;147.0;0.16477453644318144;0.07836743946393672;0.006161270741269938;152.0;0.1713445838522259;0.08506879891355691;0.007257300300956998;137.0;0.1628194518607408
0.06991532329238483;0.004897334711059955;150.0;0.14191521596359866;12.0;0.07484459636060005;0.005615110594595879;137.0;0.1395922530532819;0.07512202912588672;0.005654418850839196;140.0;0.13831957449734325;0.0687237644079971;0.004730937635156643;137.0;0.1347526990025022;0.06432395346337744;0.0041444431728261824;143.0;0.1312004943445576;0.06067376253651593;0.0036846367366869482;141.0;0.12717521774538867;0.057014080570352545;0.00325309567536823;146.0;0.12542409682180897;0.07104128350676739;0.005052166565226604;163.0;0.14995429046923875;0.044104371427336135;0.0019500115803433868;158.0;0.12594769433474953;0.04263274841310427;0.001822984639658447;157.0;0.12737431206681712;0.04281030897654858;0.0018384811151710165;155.0;0.12909192830465957;0.045163749472562825;0.002046187760913717;159.0;0.13201049230845244;0.05090851842147249;0.0025998274643620513;156.0;0.13981306435198615;0.05741034909698484;0.0033067315981309964;153.0;0.14571635722175794;0.06034598477979804;0.0036535133802390696;156.0;0.14690859798333308;0.041625220504291946;0.0017366361010446641;155.0;0.12390672067502835;0.06374474307194114;0.004076475392036565;153.0;0.16102404713956184;0.06319250558894791;0.004005737506872713;147.0;0.1522663088650153;0.06648050040778593;0.004433669485199136;146.0;0.1469100793216766;0.06140411303686505;0.0037816604149421276;166.0;0.13656459205100557;0.061293423645731905;0.003767000424934193;164.0;0.13751784289012545;0.061319054288066555;0.003770770067393331;166.0;0.1362797277591594;0.06119772346440805;0.0037554491232661903;167.0;0.136642792272553;0.05874362381129331;0.0034615539710230042;150.0;0.15335482560180136;0.0614165773464096;0.0037839954830283453;147.0;0.14967296981008515;0.060041702277043724;0.0036163141271287973;148.0;0.14939392895679113;0.05359285626833226;0.0028811277742438455;152.0;0.14451422575085093;0.04987572245934505;0.0024953827325823173;143.0;0.14254989649314168;0.05015695185857567;0.0025239009212046125;141.0;0.14258085269170123;0.05278498651200884;0.0027953101869015186;137.0;0.14556991583688192;0.060224630254761276;0.0036388297543539197;141.0;0.1530140130077267;0.058644410443908494;0.003449032418029817;153.0;0.1462371567857915
0.062040518792243295;0.003856764402986992;166.0;0.12886442851342594;12.0;0.061587806015298896;0.0038022539125178107;159.0;0.12473403060939588;0.06195177157042372;0.003847593391437809;161.0;0.122677346026889;0.05961394019364601;0.003562819926121723;157.0;0.11937872871036373;0.05875648374980619;0.0034615643861641058;157.0;0.11621882290358235;0.057764792694127515;0.0033439268723661334;158.0;0.1135404984525371;0.055357934493594496;0.0030718331737862982;163.0;0.1120687693563853;0.07104541980902185;0.005057859056710627;164.0;0.14007409972966134;0.03548145786476214;0.0012628628081479704;149.0;0.11174129568664638;0.03545923200272618;0.0012611363634754728;149.0;0.11353180191079239;0.03539440215568088;0.001256703880636713;150.0;0.11336419774205399;0.03692069442959275;0.0013669009544804004;155.0;0.1169195258580699;0.04202256881868746;0.001771427920154649;159.0;0.12569314748209445;0.050226262978276794;0.002530725337848648;168.0;0.13555592683406967;0.05566120072745161;0.003107502927820115;156.0;0.14064710864153562;0.0334206385972657;0.001120436206624087;155.0;0.1106497695821231;0.06032057740694076;0.003649167632825634;153.0;0.15918741752823862;0.057063249448323465;0.003266850864919075;142.0;0.15131882395804236;0.05683159979441681;0.0032396413187016195;136.0;0.14568512852001458;0.05564707046987943;0.003106310410489997;148.0;0.13719659296949693;0.05543026030948102;0.003082038157350193;149.0;0.1379313865986788;0.05574795852829395;0.0031172445074549096;151.0;0.13747345381817214;0.055812079489891656;0.00312470068510876;150.0;0.1379962641356349;0.05807848391877923;0.0033831975224043937;150.0;0.15331702135765765;0.055793874560543584;0.003117898875577143;164.0;0.1503406854252202;0.056538523541838755;0.0032034383401991257;164.0;0.15099872318031496;0.05320521172785938;0.0028369970737481555;164.0;0.147232126634633;0.05024477429900175;0.0025302362073253127;161.0;0.1447933809490785;0.05114282107559205;0.0026203981536861553;162.0;0.14507900631524298;0.05406910212489775;0.0029295431120663715;152.0;0.146817122189459;0.05945511953629777;0.003543184893386887;155.0;0.1510006279320275;0.0533194830036789;0.002847488209190311;171.0;0.14861851903493214
0.05452012838395768;0.0029649255655380046;165.0;0.12993978197338865;12.0;0.05303374693897412;0.0028072058353685436;162.0;0.12599229426432562;0.053149057373989485;0.0028233178239564618;161.0;0.12226857663776668;0.05049780999914971;0.0025486107525300684;160.0;0.11716768494316664;0.04888956327552806;0.002387563497187041;163.0;0.11262530138113105;0.047927955675777276;0.0022926294625114103;171.0;0.10940164138318205;0.04639803155143432;0.0021490462441008636;166.0;0.10696545424845479;0.06252275234650233;0.003901187027087677;165.0;0.13980020753398215;0.03226491406657597;0.0010443921110209473;140.0;0.11271128694554881;0.031348010876010274;0.0009858632456382003;143.0;0.11430435713870463;0.030484609985686025;0.0009323026386980818;150.0;0.11468660802108992;0.03127535631204591;0.0009813136595619126;155.0;0.11584362516641025;0.03664905979965682;0.0013473140298190574;156.0;0.12275678859037707;0.04448940204508034;0.001985597488312725;170.0;0.13257354971399024;0.05140821605408961;0.0026503601906306953;157.0;0.1394736265207266;0.031854371300316396;0.0010179254760069054;147.0;0.1116849064308227;0.06371183517224428;0.00407035697489335;159.0;0.15377098532347933;0.059558587916359595;0.003556402781881153;151.0;0.14654537044807908;0.05601259302622742;0.003146041905021449;150.0;0.14089203066097916;0.04904528594235468;0.0024132499176031386;153.0;0.12975594748750552;0.04914419921198159;0.0024229927190633892;154.0;0.13011537566757778;0.049141326858174905;0.0024227060217428876;154.0;0.12989693865778934;0.04923935370765459;0.002432369140392596;154.0;0.1302068141559057;0.05701295624705855;0.0032592173599996907;160.0;0.14531196261073623;0.056206669035930495;0.003167433404551068;168.0;0.14165774388176836;0.057646061216818444;0.0033314376176779847;163.0;0.14313289299753457;0.05267723264434659;0.002781595735267505;176.0;0.13840140034097137;0.047642423552691104;0.002275981809126586;171.0;0.13496032991739865;0.047317133116921734;0.0022448523697347744;168.0;0.1349647999087349;0.04986950926136037;0.0024927963525039802;157.0;0.13711982559094565;0.054982571703363584;0.003030017632211662;157.0;0.14110678990544623;0.05689582427875986;0.003246687264098581;163.0;0.14089090943226018
0.039688334518440394;0.0015781046800043223;155.0;0.12593159367725626;12.0;0.03803399060600316;0.0014487957607173456;161.0;0.12218158853356338;0.03555499496265595;0.0012661039499748145;163.0;0.11806287300279583;0.03262372195409127;0.001064758839452235;161.0;0.11232640254505705;0.030901826089200193;0.0009545771569604316;170.0;0.10968231277617195;0.02973174914279541;0.000883126643435351;170.0;0.10787117771529933;0.028597138827642192;0.000815634280305242;169.0;0.10547247812009079;0.04222768467487398;0.0017861706358114726;157.0;0.13091955632129984;0.030519528308708674;0.0009343723872073742;147.0;0.11187740840080251;0.029326318995398115;0.0008627143599146942;149.0;0.11195333802585315;0.029277049087158537;0.0008597598995696403;153.0;0.11285841401733461;0.02949306952129436;0.0008723506420636031;155.0;0.11296084427969742;0.03279720109592301;0.0010789999205216365;155.0;0.11700598210558447;0.038107489372093274;0.0014568626641524036;157.0;0.12218847934740668;0.04403619455407658;0.001945238162237857;150.0;0.12960456695002856;0.03041775312975984;0.0009282513045877304;151.0;0.11115066135192037;0.06007311904911373;0.003620520925133204;156.0;0.15167964833324574;0.056218562928893566;0.00316971475625809;158.0;0.14252177988508993;0.05224264984753005;0.002737488630106133;163.0;0.1364304992858909;0.04282158585462402;0.0018393837121249753;162.0;0.1246389429269194;0.04291815958151094;0.0018475442326409948;163.0;0.12503286810932776;0.04285661905654396;0.0018423037686417132;160.0;0.12442998953754562;0.04297668917917619;0.001852703399760464;160.0;0.12485694589839216;0.04919150026942317;0.002427700526785233;156.0;0.1400530975056667;0.05247383977029108;0.002761687441269406;151.0;0.1373989297902453;0.05298009639274953;0.002815812879560063;147.0;0.13867073421902343;0.04858934756897699;0.0023686061466045324;157.0;0.1351712973616069;0.04392001824397334;0.0019352275563202282;153.0;0.13306130011247388;0.04316108647217025;0.001868863859662108;152.0;0.13302072971132298;0.04571053370355554;0.002096141338808756;145.0;0.13566035013186403;0.050800804384480744;0.002589038878098616;149.0;0.14109361802442358;0.05071163496643872;0.0025790007962049172;152.0;0.1347350933478491
0.037040099256623396;0.0013733838107575951;144.0;0.11936773939995554;12.0;0.03442881631037955;0.0011878545958868205;149.0;0.11423143199225723;0.030438580468293397;0.0009291284506248211;148.0;0.10978152219554077;0.02854383976587746;0.0008170425811736298;152.0;0.10545420290878241;0.027484282490859435;0.0007573341762844338;159.0;0.10322979967000225;0.02691994606705555;0.0007267127149389662;155.0;0.10231484857879414;0.0269272701469656;0.000727313142753207;157.0;0.10127210069952894;0.04290026343710829;0.0018407083060532222;141.0;0.12858643973379735;0.025520504473697303;0.0006532411515049437;134.0;0.1051704732258857;0.025163939404847933;0.0006343344490071051;138.0;0.10553440027969173;0.02570944390344151;0.0006623574303267908;141.0;0.1057770346903027;0.026895373208633142;0.0007240903804369062;141.0;0.1073355338013293;0.029168869434673058;0.0008509150916348036;146.0;0.11249702224644328;0.03399557596952453;0.0011565961072551793;145.0;0.1189963202611702;0.04253817817057145;0.001810944094518983;131.0;0.12802715680514043;0.025597304278255704;0.0006567904166076635;142.0;0.10503412662003489;0.05715338539432285;0.0032688942886928774;147.0;0.14773999040461416;0.0547040945244195;0.002993174075859186;151.0;0.1390506663129417;0.050629608469788055;0.002564033937398919;154.0;0.13102285313815118;0.04388411394471485;0.0019291447369348816;145.0;0.12180762458596217;0.04398263271763002;0.001937287319050108;143.0;0.12216120687704043;0.043970388266637336;0.0019359399900483732;142.0;0.12164347862519244;0.04407628073087141;0.0019451747192159564;141.0;0.1219176178714782;0.04694813029628125;0.0022054376694097743;138.0;0.13564479452136494;0.046583745452289035;0.0021710557391459093;144.0;0.12826191271160448;0.04652130320741713;0.0021650297756587904;140.0;0.12884572866117194;0.04522076061450745;0.002045530630356541;133.0;0.12788778401282647;0.043355134927520765;0.0018814930936670244;138.0;0.12876631300665597;0.043379695475282906;0.001885218938148967;147.0;0.12967138162878172;0.04659798029948526;0.002174200517256136;143.0;0.1335011654138829;0.05304272931045445;0.0028180580554204152;148.0;0.14180768530854537;0.043490692848516595;0.001895593116590576;150.0;0.12647763948427812
0.03951914313456048;0.001566773528346473;154.0;0.12127396515990141;12.0;0.03402823131087378;0.0011617113258084071;145.0;0.11298082792370878;0.029765149752629103;0.0008888463110522156;139.0;0.10821854817556963;0.028351242892970564;0.0008063724254647214;148.0;0.10485079713550258;0.027256417036598663;0.0007450575095543611;154.0;0.10233650906959552;0.026809438048665167;0.0007209539550357567;154.0;0.10087811346728162;0.027230415522963403;0.0007438138382043629;147.0;0.1005225205175947;0.04535553817129482;0.00206376064594547;152.0;0.13357839324126833;0.02589792156101312;0.0006728980473510403;141.0;0.10452489780979642;0.02633310263501392;0.000695701765011119;137.0;0.1055594228786154;0.026491788634970384;0.0007041116973369438;145.0;0.10615717639323449;0.027873820601916413;0.0007792979412788451;140.0;0.1068107380465472;0.03127636118726783;0.0009814120893010926;144.0;0.11252572852370614;0.03721491746082277;0.0013894802957570888;149.0;0.12301349335977949;0.045788556735908814;0.0021032643326942464;136.0;0.13293486007990682;0.026061935247218282;0.0006814150865535937;145.0;0.10402458411180171;0.06288000008883243;0.003965878222456922;150.0;0.1407508836899765;0.05915265903525241;0.0035101565805691825;154.0;0.13503846496806404;0.05486782372169648;0.003020117538869289;153.0;0.1283116150039803;0.04878226652774441;0.0023875073784512357;134.0;0.12217930472242318;0.048798904028738495;0.0023891167861154693;133.0;0.12193994776839968;0.048598054974575505;0.0023694999950010075;131.0;0.12200987898849663;0.048814720922618425;0.002390679205652442;132.0;0.12192032731608148;0.05026890078334104;0.002534802716290815;138.0;0.13036109331020498;0.05043730735794361;0.002550297088734578;148.0;0.12255111079651143;0.050475003231844555;0.002554377424887577;150.0;0.12324914962715083;0.048288127191889324;0.0023386864469647204;143.0;0.12178636628441583;0.047193280967356685;0.0022340657570428597;143.0;0.12404994959530204;0.04661224474786868;0.002179711702590722;147.0;0.12474330723929583;0.04900624021990151;0.002409421766686743;147.0;0.1280330744567604;0.0550962747026189;0.0030455163946680533;149.0;0.13499717458032362;0.049780555358212034;0.0024845090510375156;150.0;0.12228108933875091
0.03856769346455931;0.0014883488516115133;167.0;0.11550284719730007;12.0;0.033736753734284634;0.0011387279200153714;155.0;0.1099347922370895;0.03007096688052473;0.0009043218224475255;156.0;0.10750433801441048;0.027449416100823413;0.0007535031491764468;157.0;0.1019843664628181;0.025312892319934534;0.0006411354414015242;166.0;0.10013608612540456;0.02403383720350681;0.0005779096007141151;166.0;0.09899587379291194;0.023643434057643204;0.0005597077387438569;159.0;0.09726552885992651;0.044280067541828755;0.0019642171857935866;172.0;0.12616823640710942;0.02483604355659587;0.00061720754865664;163.0;0.0983787240038622;0.025659255629021126;0.0006585703554728498;166.0;0.09765903419725312;0.026571257615941882;0.0007070029786644756;164.0;0.09911955663196513;0.027642430867175365;0.0007648621393360231;149.0;0.10043681579601683;0.032972793025480424;0.001088457247674291;149.0;0.10716503763161363;0.040371471213513935;0.0016321307628218713;159.0;0.11807825692576707;0.046482594571906226;0.0021655039884591267;154.0;0.1270063257321;0.025255970793580527;0.000638166280573784;160.0;0.09801956186103472;0.07225108236081544;0.0052326847149093796;149.0;0.14644269685077713;0.07164174662827416;0.005142718898907372;153.0;0.1376740479169157;0.0664690521556115;0.0044265238963005354;153.0;0.12995442388061357;0.048799601563169;0.00238446586458696;143.0;0.11951686612949208;0.0490486976311957;0.002408864410374448;144.0;0.11969706814564351;0.048569931932196754;0.0023625200457476694;140.0;0.11931834039886165;0.04919125221642451;0.0024229852711316014;142.0;0.1199362840158868;0.053412160542367845;0.002860119605931427;151.0;0.130838830527736;0.05438237894987366;0.002963494434399665;149.0;0.1235106026579813;0.054529149731151735;0.0029806880451526477;152.0;0.12472167576858971;0.05148909338118747;0.002657258073030797;155.0;0.12234920497663959;0.049408991976173315;0.002448101977882261;156.0;0.1231697967768475;0.04918676387167163;0.00242660947746662;158.0;0.12396001851716629;0.05267139147659581;0.002782808916306657;150.0;0.12714098817076272;0.05928544034316947;0.0035255837504050095;157.0;0.13350239748019593;0.05735625074155576;0.003299422482803143;154.0;0.1258581427917249
0.03781773056081593;0.0014316624195420057;157.0;0.11599979504181981;12.0;0.036086110685000235;0.0013042212228365538;153.0;0.11165123914360364;0.03353048123016613;0.0011268306675562805;156.0;0.10862395034455863;0.03013184577338077;0.0009098754053170204;150.0;0.10214149372689113;0.027570808458240646;0.0007615909602195084;152.0;0.09870634023165044;0.026289234278193324;0.0006925474666507398;152.0;0.09732680125721511;0.025221579397647367;0.0006370704140529249;148.0;0.09334053626967712;0.04526593179551039;0.002054139670282338;154.0;0.1250591471508033;0.025633901157447236;0.0006578523473077277;143.0;0.09608797987084654;0.025630682607060716;0.0006582602737324883;156.0;0.09581354675206126;0.02679855248612707;0.0007195001393277141;149.0;0.09734493533029077;0.027103158950704375;0.0007362335473821658;146.0;0.09913294779160013;0.033430716829833576;0.0011204591819685761;138.0;0.10725337123630634;0.041716851859361165;0.0017448297584696875;136.0;0.11697914743211144;0.046854346257354004;0.002201071197029655;143.0;0.1254786739875316;0.026103249043002957;0.0006822692595001806;141.0;0.09491757992396144;0.06835531920876181;0.004687047715280668;140.0;0.14921125163021406;0.0692906218812809;0.0048161732631557255;146.0;0.14069204180040767;0.06543031893488854;0.004293905040691805;146.0;0.13341846429102644;0.045244318855853366;0.002053737943673088;149.0;0.11975178680719406;0.04552128210261161;0.002078958943485983;144.0;0.12005840677795586;0.04518452976870327;0.0020483094568488824;147.0;0.1194630573978763;0.045753697650880505;0.002100240785446771;147.0;0.12019626230954394;0.052543188397250404;0.002769317276158464;143.0;0.1359552484056048;0.05255622889509071;0.002771111287815095;153.0;0.12931281388190555;0.05308217740954577;0.002826836408904589;151.0;0.13057640820128982;0.049208548293837966;0.0024292518985525925;153.0;0.12814299398627446;0.046230049564543865;0.002144157865203946;154.0;0.1268625557179675;0.04641385249078682;0.00216110729113622;157.0;0.12641136932140862;0.04985736199002863;0.0024937826827849817;147.0;0.12929651461220948;0.0554479367709369;0.0030844051252256802;160.0;0.1352153337255546;0.05614698371262996;0.003162755058903631;161.0;0.1311718833089016
0.03802561558676498;0.0014499213443802633;152.0;0.12244606975906769;12.0;0.03647684669865968;0.001334528111633113;161.0;0.11564810946974786;0.03512627615551282;0.0012376461623442533;162.0;0.11251734197227153;0.03325323852214239;0.001109180634441101;155.0;0.10901394856201914;0.032159064842032146;0.001037140599375127;149.0;0.10593167804862656;0.03150647848261783;0.0009954168124542112;150.0;0.1042845765182741;0.030815829040666536;0.0009519279900191306;149.0;0.10094476221509543;0.041342212333097664;0.0017137723632079014;137.0;0.13143894927531122;0.027617006670654667;0.0007637057532751608;142.0;0.10316351871472461;0.028067646436797825;0.0007892251983279433;143.0;0.10624676863369588;0.029561660843356652;0.0008755645279909375;142.0;0.10783085949715111;0.028838073925735893;0.0008328576746577046;144.0;0.10891323606933137;0.03306011185667757;0.001094412504443702;131.0;0.11610106736327008;0.03782245785446426;0.0014328461565249714;126.0;0.12461163834423372;0.04235577221165113;0.0017981383392025494;137.0;0.1315682942015237;0.02685224708812796;0.0007221534582123825;141.0;0.10079209512692237;0.05331192244189136;0.0028506557295980175;138.0;0.13717807994049544;0.04775912875225205;0.0022870626431879303;141.0;0.12685392541688276;0.045133731085254494;0.0020414786039108903;142.0;0.12183750547586575;0.03614222383722735;0.0013093225093118363;132.0;0.11171719491482052;0.03620269967407105;0.0013138264996404754;130.0;0.11203376036089394;0.03623656635479874;0.0013161622921066512;134.0;0.11173817650086554;0.0363755369862693;0.0013264010613531405;133.0;0.11183652941754063;0.042851114300190556;0.0018421104831095674;139.0;0.1274995605888631;0.04335020979532268;0.0018852697034821497;147.0;0.12679271335222037;0.043497050765670085;0.0018981770202015366;148.0;0.12638875142679604;0.04039148790084632;0.0016367310408097707;139.0;0.12503351734876794;0.03738969089728866;0.0014024712659964481;138.0;0.12329719501795565;0.03806803049555719;0.0014539122927164354;136.0;0.12314934635130992;0.04151197554014827;0.0017288432394079083;133.0;0.1265796375989908;0.04649852936409921;0.0021690047171426647;139.0;0.1313955309364357;0.04254785391605275;0.0018162460217239305;150.0;0.12416006160472344
0.039329613740029655;0.0015492288051921013;165.0;0.11812452035038172;12.0;0.03713101770433902;0.0013803652316809725;171.0;0.11307982339264505;0.03637511620721538;0.0013253987861859863;167.0;0.11109718142070284;0.03494745620750255;0.0012242986464481296;163.0;0.109247811013973;0.03400174861430191;0.0011592566362123031;151.0;0.10753753262930148;0.033454737271128285;0.0011227091059838633;148.0;0.10660087756174252;0.03210590982196994;0.00103413592054281;149.0;0.10402208410242586;0.04128025498174299;0.00170845912223705;160.0;0.1292843022500759;0.032675519067125396;0.0010679634974054266;166.0;0.10568002857568087;0.03068571846896313;0.0009435908756451107;152.0;0.10699604509869713;0.031147024171443854;0.0009727470642689381;154.0;0.10777694099013259;0.03132056745834441;0.0009831355923870827;153.0;0.10939415894813202;0.03461123975611252;0.0012012536629391472;153.0;0.11722725708297824;0.03878592173623047;0.0015084073221368767;154.0;0.12530253342554498;0.04413318283736916;0.0019519409079622203;162.0;0.13155768352322444;0.0300520930551344;0.0009030052538434551;169.0;0.1027249234470744;0.04872446331386906;0.0023810624566987025;156.0;0.13493966537797553;0.03743049075497066;0.0014048857903355488;154.0;0.12099441996937874;0.033019139830191536;0.0010932612066926171;150.0;0.1149293650523439;0.03170562104449758;0.0010085393559337602;143.0;0.10772756696053952;0.03178693493994238;0.0010136757704557482;145.0;0.10800850764524281;0.0317727057485236;0.0010128271193602016;145.0;0.10756912014936466;0.031782419461192535;0.0010134313002244683;145.0;0.10753178166105724;0.03859318403570153;0.0014941890787942965;153.0;0.12350048698937384;0.040353565618993656;0.0016337341241719379;146.0;0.11998805106751588;0.039947305327495734;0.001600864538089918;144.0;0.11951083053082268;0.03757372670820008;0.0014159452013590174;134.0;0.1176897415761257;0.03545120771373734;0.0012602348629192769;133.0;0.11789253322531547;0.03562915405077617;0.0012729153323072025;131.0;0.11855102819631229;0.03879692834712084;0.0015093032151341024;131.0;0.1233356862002821;0.04394593934327471;0.0019368402398967429;124.0;0.12891607648915002;0.038774522750352924;0.0015082660219133362;149.0;0.11753865501917109
0.03895419278467385;0.0015223825031991777;159.0;0.11119901858683101;12.0;0.037732549939539464;0.001428104710063235;154.0;0.10759838035529827;0.036640356815324876;0.001346702062823227;148.0;0.105671201135928;0.034674450985842376;0.0012059655707780995;151.0;0.10250248185927482;0.03301361758320468;0.0010932757923551527;147.0;0.10085394239517488;0.032247745679537226;0.0010430362214634008;146.0;0.09877261120416869;0.030749794062575758;0.0009484145154262278;145.0;0.0966710690942635;0.04198149300483151;0.0017679223515710306;171.0;0.12174125045442946;0.03390176359457876;0.001153011170672668;152.0;0.10633682060198543;0.027785538600164764;0.0007745492395981274;146.0;0.10434869046141092;0.026022928571425182;0.0006793588850516956;151.0;0.1037241122486626;0.02734352069331888;0.0007501030379371528;154.0;0.10597207791932087;0.03153293415176468;0.000997361490999942;166.0;0.11370565396877995;0.03854074061746225;0.0014899807926930637;165.0;0.12110409091838352;0.04689015882688461;0.002204837614455998;167.0;0.12787998735506464;0.031156463086588006;0.000973692525055369;154.0;0.10317502281887744;0.0484951391258221;0.0023593735647025283;153.0;0.13334604332759395;0.03821863514174534;0.001465387742525616;155.0;0.11915532823995875;0.035240014380538226;0.0012459071483761407;153.0;0.11251653940457222;0.03441737701645188;0.0011884293492603832;158.0;0.10739484983410943;0.034328957046366675;0.0011823310186920037;157.0;0.1069313125351007;0.034177138596155496;0.0011718816493460195;159.0;0.10720075953087124;0.03424357816511334;0.001176457052091322;159.0;0.10677903110597482;0.04002356690036043;0.0016070490323458505;148.0;0.12623660190031535;0.04103734163938826;0.0016895689375333628;158.0;0.11893295410615189;0.04155637948133254;0.0017325394052045222;148.0;0.11915828832956642;0.03986903617343423;0.00159454898722975;146.0;0.11736993901862176;0.03939399056408884;0.0015568986921647824;140.0;0.11830863814342994;0.0395583196853038;0.0015699484601769858;142.0;0.11880065410294403;0.04034582251125679;0.0016330173261652767;141.0;0.12220542272468267;0.04303690912855215;0.0018573887242350293;137.0;0.12699226624476592;0.04026338829547014;0.00162615597500628;154.0;0.11759574180741998
0.031038231383643186;0.0009663879038469556;146.0;0.1069806618758101;12.0;0.02888554442930463;0.0008368984434659227;137.0;0.10155068410246344;0.027671971303686368;0.0007681088305809483;137.0;0.09978053997063949;0.026764070306186293;0.0007186627238039314;146.0;0.09658836803132138;0.026176214392010014;0.0006874417967970627;150.0;0.0946401489109095;0.026186909600039072;0.0006880032559265741;149.0;0.09335907039813589;0.025623292859729384;0.0006586808011388675;149.0;0.09291287914802464;0.03692789151074724;0.0013679742318746962;155.0;0.11752772052586527;0.028671389617492434;0.0008223712543578159;143.0;0.09897697812986139;0.024291336791918965;0.000591390422733106;142.0;0.09973375375713042;0.02254606073701911;0.0005099742746994352;150.0;0.10082626740984489;0.023452863658848324;0.0005516142125262369;153.0;0.10160584552039438;0.026283529647843026;0.0006928067221153505;154.0;0.1076253645648147;0.03415512280364243;0.0011700288187792777;150.0;0.11492984362097483;0.04200024588820898;0.0017691736307270255;153.0;0.12144857985100355;0.027221290297444314;0.0007416940958471145;144.0;0.09697359827700855;0.04474283786211066;0.0020055434308624454;138.0;0.12182155016404767;0.03735708733934633;0.0013968212038990508;130.0;0.1091643403365982;0.03494148607228025;0.0012219161532274977;137.0;0.10458566837591662;0.032374186342511616;0.0010490636675544172;145.0;0.10107163417582764;0.032444627001839324;0.0010536227684646454;147.0;0.1009734338701092;0.03225724771600683;0.0010414080263685317;146.0;0.10104733735191966;0.03220230166606804;0.00103804415973463;147.0;0.10102260098683989;0.037521493800583276;0.0014106968341744848;135.0;0.11674680318742607;0.03662608777947105;0.001342774333333646;147.0;0.11040827925216787;0.0373237103867201;0.001395084693570309;145.0;0.11077728541013045;0.03657120428890667;0.0013390474533926716;142.0;0.11025558450108033;0.03607857620836154;0.0013045253637664434;141.0;0.11020859724817544;0.03653400080397124;0.0013387966715355175;139.0;0.1117465970175379;0.03674041551260083;0.001354164182960964;143.0;0.11393431012420202;0.038618862454482775;0.0014962543828569437;145.0;0.11854169242292392;0.036291958994851714;0.0013187497297542901;141.0;0.10881466415683962
0.02856307938432334;0.00081851193026883;141.0;0.10929574004392889;12.0;0.0252178343305412;0.0006377949648459733;136.0;0.10331099987872665;0.023417552827540877;0.0005500508297464016;140.0;0.10014248762990018;0.02238147992066276;0.0005024050749165323;146.0;0.09756274685199966;0.02292897668157779;0.000527346896512008;154.0;0.0970297962679314;0.024040486825615395;0.0005797461731467266;151.0;0.09751526353232258;0.022888580012749436;0.0005255622410474513;148.0;0.09577874739118601;0.038824209294833024;0.0015114459622095615;145.0;0.12276422547347847;0.027064522628418956;0.0007339525257416297;170.0;0.09911167980157107;0.025690100819425552;0.0006615353906357499;165.0;0.10112365533885528;0.02487550940817066;0.0006206863569684922;156.0;0.1016430569896047;0.024297500559304224;0.000592257050438665;156.0;0.10040212714330128;0.025992263395366377;0.000677518406844464;154.0;0.10610948931383425;0.0319260637144949;0.001021551445610071;154.0;0.11328814141711589;0.038470040251883886;0.0014831145029699506;149.0;0.12114951643844467;0.02508388125104388;0.0006302735953197194;168.0;0.09618189897190486;0.043340526738280205;0.0018844728568167557;145.0;0.11568702431062329;0.03584771243187764;0.0012892289519121883;135.0;0.10385731385576048;0.03350132880301282;0.0011259731639041341;141.0;0.09949118853605354;0.031470807758716454;0.000993572579470184;152.0;0.0959643930949124;0.03144080579292894;0.000991687828184079;154.0;0.095984398811665;0.03141322553395268;0.0009899513852814291;151.0;0.09521486635230264;0.03115853050906381;0.0009739724122457228;153.0;0.09567188788180478;0.03486838141176731;0.0012197757233979817;146.0;0.10792645035065666;0.03828784937409573;0.001470486275665645;145.0;0.1019288113737968;0.03723809662393808;0.0013904083799060505;145.0;0.10313757606702334;0.033567812242882904;0.0011296922390099144;142.0;0.1009260066577;0.030796230147825482;0.0009510487703667113;145.0;0.09973302318819252;0.02951917860478276;0.0008738656450481821;145.0;0.10020210679096593;0.029993523246044415;0.0009023058357123221;147.0;0.10278866402187053;0.032781529657660874;0.0010777741008393344;146.0;0.10897015126732945;0.03580255054761474;0.0012855331465081797;146.0;0.10053713010477058
0.02899496684294208;0.0008431489321436473;144.0;0.11027000542381113;12.0;0.028180302042357806;0.0007963858115569484;145.0;0.10570101327875192;0.02745963863513985;0.0007561142242316114;154.0;0.10261547142807427;0.025879311412016347;0.0006716712908378364;151.0;0.10029913758315216;0.024759557418359553;0.000614939865931837;156.0;0.10012985778564171;0.025002363278443372;0.0006271418974442001;156.0;0.09963111161115921;0.0243606586166745;0.0005953805402224363;155.0;0.09780547119700267;0.035861447090398256;0.001290204547666416;155.0;0.12070293262817768;0.02932172977435103;0.000862563919976878;158.0;0.10656164633196444;0.026066446480988607;0.0006816591060037603;169.0;0.10735303142139296;0.025268702204897936;0.0006405936386824564;150.0;0.10709013187183902;0.02406490557402948;0.0005809337360342111;162.0;0.10560567295631552;0.026364004046870695;0.0006971682030048891;164.0;0.11033438256357483;0.029425834144566704;0.0008685798128733199;165.0;0.11523421787656991;0.03366586225055781;0.001136720699349847;154.0;0.12124482212897851;0.027605619413351528;0.000764531816163024;162.0;0.10242437110613524;0.039770857706660875;0.0015863645083934207;157.0;0.11509240836170588;0.03255666634989787;0.0010626840518512429;163.0;0.10498559874158679;0.030377490728493012;0.0009250493963655042;168.0;0.09971955201069535;0.028914470779663318;0.0008382906420969448;174.0;0.09345517432846534;0.02862844354814836;0.0008217899160067807;175.0;0.0934223034534992;0.028730873351889844;0.0008277918671205553;175.0;0.09288507827641264;0.028664487867529037;0.0008238888702010747;176.0;0.09352491666765081;0.03227522167470216;0.0010448062954779797;162.0;0.10509313845813144;0.037227490445994244;0.0013882888220414918;161.0;0.0982218874466175;0.03563929423541092;0.0012718087261041533;153.0;0.09868899191583325;0.03176882140241;0.0010104195748302275;157.0;0.0966666540995816;0.02888345352162516;0.0008360083988387875;153.0;0.0959293476467885;0.027369212610838734;0.0007512967261011619;151.0;0.09639403265859853;0.02775695869273037;0.0007728271291372218;151.0;0.09941286180251506;0.030625833725901004;0.0009409773888484571;154.0;0.10685660229499071;0.03379906017258514;0.0011451566612165364;158.0;0.09715835736108681
0.03063577401176378;0.00094141876751321;154.0;0.1113708317344397;12.0;0.0289157192229935;0.0008387317813171252;157.0;0.10509749708258354;0.0279400733023625;0.0007828210062545599;168.0;0.10227894161632373;0.025795600712299877;0.0006673330394625334;156.0;0.09953959744077769;0.023811315370643866;0.0005687404397125233;146.0;0.09739636735937734;0.023253303092455484;0.0005423434552119891;145.0;0.09680980565081665;0.023400212510346678;0.0005493108109999031;144.0;0.0956709882030297;0.037651805383002585;0.0014216348608207768;168.0;0.12110817453407828;0.027259870668435306;0.0007453825421924483;152.0;0.10192270396592201;0.024985598526198527;0.000626303199188495;158.0;0.10311352545226915;0.024722365167173348;0.0006131923682749297;151.0;0.10370761897120055;0.02493496389380529;0.0006237676776312002;163.0;0.10451718101149314;0.029735091330477432;0.0008869400086863505;166.0;0.11091328647167667;0.03635970089150878;0.0013258150014959717;162.0;0.11941074804020751;0.042311664821281465;0.001795086574196207;165.0;0.12554799678776885;0.02688223460697813;0.0007248979822513477;157.0;0.10005347315881483;0.031807938128221774;0.00101437138075562;164.0;0.10615672899990858;0.027495620536957435;0.0007580371136242637;181.0;0.09889381458031275;0.02607133523182244;0.0006815280239787348;184.0;0.09537455859754998;0.02468604041841087;0.0006109209237533824;186.0;0.08856732623033303;0.02446166430617049;0.0005999674591376464;189.0;0.08871745656040485;0.02468906709565763;0.0006110501770556109;189.0;0.08893235815066176;0.024608943126989063;0.0006072850750146861;190.0;0.08886234951974102;0.02742454868680947;0.0007541878608962298;167.0;0.09889648460274568;0.02866905797178003;0.0008244731576311234;153.0;0.09388478402329983;0.027913601216311625;0.0007816807578328755;153.0;0.09490387817818186;0.025034703678164485;0.0006287546722060097;159.0;0.09217169559571729;0.0228091943476356;0.0005218754609891882;158.0;0.09100809586274308;0.022022602607036115;0.0004864946309935427;155.0;0.0913213360416682;0.022394500477655222;0.0005031377289502424;155.0;0.09367584086107261;0.024743628288575386;0.0006142347838884167;160.0;0.09966451091010634;0.0274137485143344;0.000753972412582949;159.0;0.09284801075102789
0.029595195486024406;0.0008786354703789642;153.0;0.10541568833932864;12.0;0.02689925905762705;0.0007257235158572165;146.0;0.10020312500607965;0.025949515273006717;0.0006750380254446159;151.0;0.09744872290024395;0.02506113188530524;0.0006298615479983206;143.0;0.09509334090815212;0.024839982673721426;0.0006189159007679509;136.0;0.09322423343552451;0.02459120423398344;0.0006064620337159516;138.0;0.09456381035149793;0.02338818813173998;0.000548749750666347;131.0;0.09257644083547012;0.03738879396223885;0.0014024884899768474;169.0;0.11800202299990432;0.028636175688666762;0.000821968612104748;163.0;0.09745002880374934;0.024890588070071724;0.0006213123769828202;154.0;0.09595224477525546;0.02354723164606865;0.0005562827602716581;163.0;0.09586334598819736;0.024198973255816724;0.000587471613477234;169.0;0.09671107206749884;0.029675031504224403;0.0008834756333102824;172.0;0.10509843110663736;0.03657656753344158;0.0013421289210014352;168.0;0.11441800384219344;0.04311491116614902;0.00186480100637211;170.0;0.12218139042741273;0.0264690449135352;0.0007028347998058204;158.0;0.09595586241263875;0.03036802747659182;0.0009251796598971054;154.0;0.09971573408824198;0.02491645590234812;0.0006228637754600633;176.0;0.09206601679331322;0.02306741550448591;0.0005338515591352147;182.0;0.08814663799404163;0.020986136190914603;0.0004417088616672674;173.0;0.08224212290251307;0.02079237532847292;0.0004336538058053437;177.0;0.08207889975777372;0.0208618970689363;0.00043646567606814356;177.0;0.08258160755998271;0.020795335222245366;0.0004337906650431385;178.0;0.08176441760845618;0.024747837018500418;0.0006144665857240337;161.0;0.09350635562653034;0.02401331883702472;0.0005781479157084514;143.0;0.08686137727120453;0.024105588319483753;0.0005826240927535516;145.0;0.08931799689618398;0.02193564865755656;0.000482483957175575;144.0;0.08625280534595392;0.020374838410059652;0.0004163669113713766;154.0;0.08629304725272931;0.01989519352342497;0.00039696571881444475;152.0;0.08543180239115172;0.021356421619315176;0.00045741760102065653;152.0;0.08800236742269923;0.023916374760297114;0.0005738018678036347;156.0;0.09274824000580215;0.022569705591093003;0.0005106200051971464;149.0;0.08613388622179387
0.02860741316818618;0.0008208221028205002;149.0;0.10057200512657653;12.0;0.02684203157391981;0.000722823581708732;135.0;0.09649372309703891;0.02639695851805011;0.000699079075317142;139.0;0.09461233547400323;0.02497348628301471;0.0006257140680780348;133.0;0.09129662650711666;0.02445277395636583;0.0005998788418300127;135.0;0.09111722015499256;0.02376894625946856;0.0005668059162759486;142.0;0.09155849970950856;0.022875890935593043;0.0005248565335715963;140.0;0.09044730123796618;0.03573345737757644;0.0012808083221301089;162.0;0.11119097694616234;0.02884584572943098;0.0008343956320602239;160.0;0.09499391583432756;0.024891546333572122;0.0006215918085951392;153.0;0.09298794123370616;0.02328083959431563;0.0005437675532520211;165.0;0.09329504875917145;0.02398796232620605;0.0005773026425621042;174.0;0.09264802145094163;0.028757384342526057;0.0008296886473715539;169.0;0.10056953885746438;0.03492517218294282;0.0012236667364681202;180.0;0.10695634383614093;0.04056790091406083;0.0016510697189922466;171.0;0.11288373789724968;0.026583206028051202;0.0007087221782013942;158.0;0.09219112080682124;0.023616948225106734;0.0005593476492387006;148.0;0.09053310716004;0.017965011391147655;0.00032347566262883634;162.0;0.08216890005866088;0.01635433068109072;0.00026797914541589683;171.0;0.07770206099312564;0.014322519757838643;0.0002055711966521516;164.0;0.07299818903249983;0.014141053461199269;0.0002003022516487604;164.0;0.07188250676676097;0.014000683935259486;0.00019639453432358848;162.0;0.07282810210921269;0.014283576678326195;0.0002044376322180664;163.0;0.07263966792986666;0.01856158085616656;0.00034530469286563515;153.0;0.08442744577914374;0.018448022524546734;0.0003412346027261513;141.0;0.07398306950247531;0.01803555694794056;0.00032615048716958764;149.0;0.07484499598562329;0.016927377570493306;0.000287339585307776;142.0;0.07401306698186508;0.016188193270798828;0.00026288120667518924;153.0;0.07392123133599018;0.01630142584007697;0.0002666000828070167;158.0;0.07522918645121043;0.018011517102654282;0.0003254768447489479;164.0;0.07712758497928525;0.020824268584053188;0.0004350678770265589;162.0;0.08361910044255436;0.01765457469379711;0.00031259868930972695;151.0;0.0748669908442306
0.03001675618677134;0.0009039706375655497;159.0;0.10642835830823998;12.0;0.027763670133222073;0.0007733614067952468;149.0;0.10200551287250921;0.027375196897304332;0.0007518555891411528;149.0;0.10117824262424344;0.024869809820557948;0.0006204926029848625;145.0;0.0986123634951102;0.023053910069157905;0.0005331579602003821;152.0;0.09775655403294031;0.022660632440191963;0.0005151963652781663;155.0;0.09778642401815832;0.02233685800202975;0.0005005785098949611;152.0;0.09652562670480189;0.03919294714483825;0.0015408498741442827;159.0;0.11620658187967822;0.026617163865514257;0.000710731178650031;162.0;0.09972752649913702;0.024659287763813143;0.000609543514720136;159.0;0.0995114272394124;0.02370542115386981;0.0005636295915378112;159.0;0.09941870291640661;0.024220947390364168;0.0005883820107023566;160.0;0.09944709489924575;0.029152460900349897;0.000851718343520333;157.0;0.10656594122887668;0.03699598231219404;0.0013722759096182425;167.0;0.11360474965547733;0.04442865602096215;0.001979267167992441;165.0;0.11901007590260371;0.024863203976235034;0.0006201860817489497;161.0;0.09729527556018268;0.025241094017094994;0.0006382422531470951;156.0;0.09331822130590038;0.018738242560650018;0.0003518131630348201;159.0;0.08486086789941275;0.016557886666664967;0.00027493572946541854;161.0;0.07955480747006703;0.013794977406988837;0.000190885560198382;163.0;0.07387654062981368;0.01357762103284055;0.00018491634641651806;162.0;0.07318322651021386;0.01371650388827732;0.0001887355796215355;155.0;0.07402779071215787;0.013836121672122394;0.00019202023371160565;157.0;0.07369288221304961;0.01982898609971201;0.0003939296990599446;160.0;0.08670684271589635;0.019351365857713226;0.0003753418727782798;153.0;0.07741025036687837;0.018798913025619153;0.00035428927640548073;160.0;0.07752314920094228;0.016965010644849024;0.00028863114112181857;157.0;0.07760721503614292;0.015604719366677833;0.0002442911109878123;154.0;0.07496581676788519;0.01551923119841767;0.00024166327244856838;158.0;0.0786457725257704;0.016690946053168985;0.000279548612512765;160.0;0.08110642824478706;0.01989014407317411;0.00039694508626607713;156.0;0.08836056906892538;0.01730700573299952;0.0003002819078356635;165.0;0.07756615329651369
0.08093700720714116;0.006571534057460379;163.0;0.1391770797388874;12.0;0.09268189222796255;0.008615244140827063;154.0;0.14059977589068393;0.09636867184057209;0.009314649873431556;149.0;0.13919709459398855;0.08796243525551468;0.007761791349853277;154.0;0.1352825436974333;0.08107220018241768;0.006594084407922621;158.0;0.1322869557122419;0.0749204741196406;0.005631423405887991;155.0;0.13062613861021607;0.06928131178053448;0.004815794437889343;159.0;0.12743621471033378;0.07370015925457137;0.005449605320204729;165.0;0.14592962036797286;0.05481073856508878;0.0030141738691317663;163.0;0.12391936409902801;0.049290835177503316;0.002437556957913297;165.0;0.12466649755611296;0.047591888039583405;0.00227247636571709;163.0;0.12528692202275268;0.04785656263698796;0.0022975166631569012;164.0;0.1242019100694901;0.05139023758086312;0.002649554409865919;160.0;0.13030267412851176;0.058282344502413236;0.003407601856096737;154.0;0.1379757108225423;0.06941485358307944;0.00483385303661924;161.0;0.14611523554437247;0.05838576316185799;0.0034202028346699536;168.0;0.12354978481236832;0.04652692540035128;0.002170066717383018;158.0;0.13019818536463665;0.03916881303972725;0.0015389627134309645;152.0;0.12158078401611294;0.036103390540941145;0.0013076866637994776;153.0;0.11579033984313095;0.03442268858537068;0.0011887922061868566;157.0;0.10971556216041081;0.03452935821197409;0.0011961721504193021;159.0;0.11000259151911092;0.03439465754347277;0.0011868501662264433;153.0;0.1105253696215954;0.034495628749314514;0.0011938368379692688;154.0;0.10972458820052909;0.045501887428740256;0.0020767932457062227;158.0;0.1283954482958217;0.04637248062308541;0.0021572611524414602;167.0;0.12204040191525123;0.04916837235710826;0.002425270333434408;165.0;0.12402989840807879;0.04670262752394878;0.002188019876372248;166.0;0.12307190342470695;0.04369926285088958;0.0019155645243898746;158.0;0.12161400100513187;0.0424201899454822;0.001805002657805008;154.0;0.12329215023119347;0.04339485109575667;0.0018890139218132496;153.0;0.12590859992001688;0.04672842633891769;0.0021903780838055803;148.0;0.1307385228817689;0.04809367863045689;0.0023204272273612534;167.0;0.12239994475504368
0.1099528013618906;0.012126621402618583;157.0;0.18326324515065148;12.0;0.12353992011212762;0.015308088245637;155.0;0.18456804233850052;0.12574488316459656;0.01585892864916213;151.0;0.18244971830073486;0.11481739345324482;0.013221715944832573;159.0;0.17661779251386964;0.10619967002223404;0.011312680519049574;157.0;0.17219886747530852;0.09756794062276675;0.00954860534692304;151.0;0.16732996579610118;0.089793865823646;0.008088271722145653;156.0;0.1633129141327352;0.10211907256623949;0.010461506834665594;154.0;0.18852061977882764;0.08535297037707373;0.007307519529859502;155.0;0.16417962585687812;0.07895254056139189;0.0062531065355491255;158.0;0.16579854942597702;0.07467115457503729;0.005591709471419867;160.0;0.16646971865983232;0.07631401205039652;0.005841541441284794;162.0;0.16591876353166535;0.0815580221156761;0.006672853664248072;159.0;0.17051868506955045;0.08998488737646568;0.008123417727584677;156.0;0.17806564058861107;0.09822281577451784;0.009679091620368405;155.0;0.18602750746524452;0.08620587981662767;0.00745473022280774;158.0;0.16325369877121668;0.04944212555989892;0.0024520639865887556;148.0;0.14311118199244732;0.0418600598336;0.0017577753751863295;145.0;0.13277294185310853;0.03955157871658387;0.0015694344286194721;151.0;0.12788725485459015;0.03981002977346092;0.0015900120361048164;155.0;0.12374860176068765;0.03976552907734218;0.0015864573250817175;158.0;0.12357729944003268;0.039810032067448826;0.0015900088673767747;154.0;0.12394073621161014;0.039807726277725594;0.0015897960156482495;156.0;0.12345337962975499;0.04766664175700217;0.002279378631454915;140.0;0.1375403744295383;0.05759354823079124;0.003327822886411318;160.0;0.14332891438059314;0.0601133667715246;0.003625292812241369;154.0;0.14555177746592815;0.05694283751578911;0.0032528631197806966;152.0;0.1433683141105676;0.05231915046735579;0.0027461755862331692;151.0;0.14054433210071052;0.04982949840384019;0.0024910120636032645;150.0;0.13899772988492365;0.05035256653099081;0.0025436309953429563;152.0;0.14009570995527104;0.05374858784431841;0.002898308114824387;149.0;0.1441160218586233;0.05841127401835055;0.0034229699832113362;156.0;0.14170465118050998
0.08735265748629106;0.007649363904293838;153.0;0.17004821034926734;12.0;0.09300302705987525;0.008669663027310514;155.0;0.16778082741135877;0.09244399146485838;0.008562626226127407;151.0;0.16584134882378243;0.08615262399629356;0.007440298350378753;151.0;0.16167575987454105;0.08094586593603678;0.00656970628172062;154.0;0.15889356033325502;0.07541441002679194;0.00570182796594192;146.0;0.1545397390380536;0.07001093638279422;0.0049144776282747105;141.0;0.15151652522742484;0.08785046183207025;0.00773795269675573;158.0;0.17725523849586963;0.07642973895833405;0.005858860043090275;150.0;0.1542320450685047;0.07246522157805334;0.005267843386226626;154.0;0.15537425742390826;0.06955353942791957;0.004853445727827093;164.0;0.1558665705538063;0.07167932355953978;0.005154497088802568;167.0;0.1589346961329025;0.07878698491656395;0.006227498984803794;165.0;0.16593920275714244;0.08718338515057314;0.007625458066956337;161.0;0.17477675452204947;0.0890970437092911;0.007963641185017436;158.0;0.17866097954112958;0.0737049570589254;0.00544679732803101;152.0;0.15270739757266205;0.04707484093984913;0.0022232310221594652;146.0;0.13750590715335378;0.04014787062342476;0.0016171572957373538;143.0;0.12605664025905286;0.03655379875168319;0.0013405275158836832;161.0;0.11932678723592711;0.03439887888194072;0.0011871095419964642;154.0;0.11376705194615616;0.03438863544798045;0.0011864420786407241;156.0;0.1138353956548792;0.034520737330470855;0.001195578338611331;154.0;0.11374166443058858;0.03430359548325711;0.0011805097891554332;155.0;0.1131452236112646;0.03613256956715022;0.0013098386715554506;145.0;0.12415616511575231;0.051526007500409365;0.002663608254949837;154.0;0.13271033635062396;0.05335088188711421;0.002855480100102454;146.0;0.13444068860812225;0.049165758209908754;0.0024245362222369495;150.0;0.13191671437729416;0.043112179010764896;0.0018642012708438578;151.0;0.1290662904449994;0.03989357302678392;0.001596334480047692;144.0;0.12724425294270997;0.04010577257883911;0.0016135818382082962;142.0;0.1282629897218171;0.04326490016772714;0.0018779569615356817;146.0;0.13304116403501892;0.05169531088351493;0.002681097332853382;152.0;0.12903858711774746
0.0590488953523747;0.0034981299538278487;144.0;0.13746140868710754;12.0;0.05506849814496927;0.0030421995836470606;132.0;0.12910656216997138;0.053642864755594453;0.0028869226876177116;135.0;0.12542355791976137;0.05229082763881966;0.0027432658865211147;129.0;0.12333553737838034;0.05124284683936153;0.0026343204362611673;136.0;0.12206229056191503;0.05066574913757934;0.00257510318227983;135.0;0.12073070701123367;0.04915200386393179;0.0024233751130972757;136.0;0.11876306368411227;0.06508245186003246;0.00424896767820918;168.0;0.14988211043340355;0.05100757554556081;0.002605548241562804;139.0;0.12583420003618445;0.04613813923361141;0.0021340740170709533;150.0;0.12505226247071277;0.04522183073588666;0.002051283816571279;161.0;0.12617729691413343;0.045983079897417206;0.0021212207847050215;162.0;0.1287218579879378;0.05303211529135023;0.0028215346974189664;156.0;0.1383275582570482;0.06160073775583302;0.003807039308968462;157.0;0.14930352419780998;0.06421222217633184;0.004136640213346425;159.0;0.1535427982399293;0.047585545019258206;0.0022696602886758356;145.0;0.12326102681757296;0.05312891590407432;0.0028319055920162043;153.0;0.14465804958549272;0.04516569740216512;0.0020465947736606678;152.0;0.13281058886005934;0.04008858503033631;0.0016123805429418352;161.0;0.1253029460921739;0.03596481257909899;0.0012977118434081081;164.0;0.11795366207647147;0.03602953688766059;0.001302369478296499;166.0;0.11784924217616595;0.03606123872644125;0.0013046597518814112;165.0;0.11786757184404249;0.035803109897393014;0.0012860756035719273;163.0;0.11726168826032458;0.04244749102944815;0.001807689743995573;160.0;0.1330606240939221;0.04986393823331503;0.0024942856700200062;165.0;0.13165542645773357;0.05158718424744677;0.0026697210052885095;164.0;0.1324906899815313;0.047359052992797974;0.0022493737744503266;169.0;0.12953003300957908;0.04094289650446041;0.0016803095048229387;170.0;0.12789181372783684;0.03881352633880295;0.0015109600518878662;167.0;0.12757560341719126;0.040097958032169444;0.0016131121305955722;155.0;0.12980133853519865;0.04494827386236664;0.0020269375767417667;157.0;0.13548056161191707;0.050272219650436364;0.002535024290436999;159.0;0.12917896001671336
0.05797740005789915;0.0033715515308418067;150.0;0.1371634502477315;12.0;0.053490625297572446;0.0028702219131832487;132.0;0.12814415326605696;0.04845927443152585;0.002355593202179387;140.0;0.12335167496498294;0.04427766173976788;0.0019659972814579972;141.0;0.12093665339633494;0.04327734020019493;0.0018776001439848539;144.0;0.11972137583290449;0.04319325583084342;0.001869818842535144;148.0;0.11917478761977195;0.042436300493190644;0.0018055804622470549;154.0;0.11763537860843486;0.05987266448415072;0.003595644874740305;158.0;0.14728300243565717;0.049413444675590404;0.0024492755207659264;152.0;0.1293720236957164;0.04284817846893144;0.0018419597361647281;156.0;0.12910257707191575;0.03912073453797743;0.001535292500459865;162.0;0.1290808908991077;0.03978755157109632;0.0015875855612314678;156.0;0.12992895750740288;0.04444600203921954;0.0019811957444713286;151.0;0.1373278730711148;0.05177238572644848;0.002688684904248263;156.0;0.1454859586787275;0.05568986296328459;0.0031111265025489795;148.0;0.1500612762652269;0.04404811519961685;0.0019460845514136266;155.0;0.12630897711644926;0.05447102181456604;0.0029762335741390744;159.0;0.14617048041437958;0.04230379230888812;0.001795455679261742;169.0;0.13117644421670338;0.03755756187039448;0.0014151587109860553;159.0;0.12414497966680917;0.03663582294536008;0.001346572592011439;156.0;0.11781711190245188;0.03645495988530736;0.0013332279584860956;161.0;0.11741189608393436;0.036755684821598876;0.00135527199255631;157.0;0.11750459440672298;0.036336697142274214;0.001324665870438221;157.0;0.11732234055879347;0.04489350414704988;0.0020220026819209127;163.0;0.13419182986765074;0.04773570264065547;0.0022859821981995577;171.0;0.13170948239924862;0.04816578187330994;0.0023272577098862345;170.0;0.13211648290299813;0.04560363040698965;0.002086122545078056;166.0;0.1284109884060663;0.04245735705979978;0.0018083908248601199;167.0;0.1266397219528896;0.04140769624021601;0.0017201169548466783;166.0;0.12493214783403052;0.04210289569660436;0.0017784308796627484;156.0;0.12659046116079697;0.045900350558393095;0.002113654896355874;154.0;0.13237923513874364;0.0458990734709095;0.0021136059570465186;162.0;0.1300910561336972
0.05001123085369975;0.0025089029130802233;149.0;0.13276490176520048;12.0;0.04812052767262841;0.002323140062927433;141.0;0.12801122695598785;0.04362822289073163;0.001909627547854265;153.0;0.12315639050235865;0.03907087498476541;0.001531482269937134;159.0;0.11838716886972002;0.03749759892167601;0.0014104046264372871;156.0;0.11704213659928799;0.036708890671984275;0.0013517212939928725;155.0;0.11548988299874484;0.03519754675341226;0.0012427864483535516;156.0;0.11339134352789126;0.05093341456238187;0.002602151376294131;149.0;0.14047994185443352;0.04069633843822563;0.0016544722737997133;155.0;0.11909723534010605;0.03675411585035771;0.001350271626156649;158.0;0.12028995659678036;0.03516533805771389;0.0012371286411695776;166.0;0.12239027303931346;0.03686672748666867;0.0013603053362578115;157.0;0.12552378826612454;0.0407823628684782;0.0016662535187105519;162.0;0.13151963971305194;0.046023257582293794;0.0021236815095426443;160.0;0.13964731944384323;0.04777856980709356;0.00228978043472354;153.0;0.1436704450750736;0.037479321921392965;0.0014025877365548862;165.0;0.11852786689590852;0.05898000693690274;0.00348982438050966;163.0;0.1442636686795773;0.0456736204776371;0.0020926993319420745;169.0;0.1303114427057981;0.04010895625557411;0.0016140895851027549;158.0;0.1219485865741101;0.03583955289564036;0.0012886833307127138;155.0;0.11429878093082263;0.03586766558163726;0.0012905678524949425;158.0;0.11505639370476002;0.03596426759896174;0.0012974985338248346;154.0;0.11420806499000505;0.03576318141331246;0.001283132705490539;156.0;0.11411077281382906;0.04674957590479468;0.0021924494609605184;167.0;0.1324849241049887;0.04893475733309244;0.0024024821458202205;154.0;0.1310922227935798;0.052203957572282224;0.0027342001949074136;146.0;0.13330105265227918;0.05020676063488626;0.00252888492836089;142.0;0.13163912519060028;0.045435589664127675;0.0020710754107719194;155.0;0.13043498526473254;0.04357261794017185;0.0019048202447442568;155.0;0.12864681196053754;0.04446435683771754;0.001983558545512329;151.0;0.1289934499253768;0.049126275285028484;0.0024212316383302322;152.0;0.1344026918890593;0.04806815454228984;0.0023180439977655465;157.0;0.129534102845766
0.042150210803570134;0.0017824478636740484;151.0;0.12687181470482;12.0;0.039286210855934346;0.0015484370412296993;155.0;0.12192694632226396;0.03704133306817958;0.001376546019349024;162.0;0.11662006520313561;0.034448708836714144;0.0011905133726600409;168.0;0.11188390850061106;0.03301799469500094;0.0010935195235121894;167.0;0.10918006247778839;0.03237670330947059;0.001051531791168846;164.0;0.10773289818460978;0.030688914284609035;0.0009447204257565775;162.0;0.10530532584775461;0.05045103597836592;0.00255361446138118;156.0;0.14006629850197194;0.03315427676746507;0.001102816803895666;150.0;0.11317169225528691;0.03156859901325343;0.000999835655754286;148.0;0.11306136162538777;0.030635254033924825;0.0009412544229815802;151.0;0.11533880998557555;0.032503123710997874;0.0010592702796958938;151.0;0.11741112114139735;0.03653630386648687;0.0013383812328513062;155.0;0.12272970962247506;0.041929742531398445;0.0017634769109181523;149.0;0.13080041241261392;0.04668629751441212;0.00218582133119083;160.0;0.13835177391262846;0.032067246185036924;0.001031602113429687;156.0;0.11213301032501882;0.052585535630632244;0.002773462523452907;158.0;0.1363394018694897;0.04460135263120878;0.0019951127629540197;162.0;0.1259363462529095;0.040049377840018725;0.0016083606149693702;148.0;0.11854109259723733;0.03302230072324721;0.001093422153510244;154.0;0.11098514726387776;0.033154066900968164;0.0011021964450150339;155.0;0.11177823470866208;0.03295127829077109;0.0010887184246452658;155.0;0.1111828686528666;0.03315931616963708;0.001102808348891338;155.0;0.1111405479755807;0.041254615297926546;0.001707077374599418;158.0;0.12721303164301614;0.04783919372494884;0.0022922361398470138;140.0;0.1284823726771146;0.05082495241791802;0.0025877012707382534;135.0;0.13062619151486363;0.04689690022672171;0.0022042638683364988;129.0;0.1275343917315128;0.04024346987711753;0.0016239082636873947;146.0;0.12746934515993516;0.038352319157059694;0.0014755288865131108;150.0;0.12745798192696373;0.039991909402198225;0.0016045320685390322;151.0;0.1290957383538694;0.046185653736859136;0.002140142081052064;155.0;0.13489599426529214;0.04870456782913744;0.002378600900959754;146.0;0.1271354687665421
0.03745188045421094;0.0014072252444886956;150.0;0.12091757382556068;12.0;0.03457814721981107;0.0011994573012123993;151.0;0.11480992890652658;0.033177309691151374;0.001103945636102714;147.0;0.11010246817661716;0.031235220414347453;0.0009786143283839442;152.0;0.10770455706368538;0.03059925146487289;0.0009393346722038394;153.0;0.10599984958234618;0.029930590687439446;0.0008987502957861962;151.0;0.10415148271186268;0.028437417427260477;0.000811326857004204;157.0;0.10281573604143064;0.045824102904684014;0.00210668551281474;161.0;0.13342278429377366;0.030112282030006213;0.0009096919106227494;157.0;0.11188914826990833;0.029221977446994656;0.0008563820003850552;150.0;0.11174869126649266;0.02855050012264418;0.0008175998066453094;149.0;0.11122211373055756;0.03035423825016501;0.0009241006845233231;153.0;0.1131844976938479;0.0341626288543914;0.0011701557521594638;148.0;0.1199448680056436;0.03897150144396611;0.0015233866157777893;145.0;0.12584687432831837;0.04313110411387975;0.0018657148350741642;149.0;0.13002173733495823;0.027834607399505835;0.0007772437901567004;155.0;0.10789050802445907;0.051151134039883396;0.0026247870563591543;152.0;0.13647428244878548;0.04495006473672079;0.0020265870152214338;162.0;0.12639980925414324;0.040670780284974305;0.0016591348638484832;157.0;0.12005648585717234;0.034217930139520555;0.0011746724402746762;160.0;0.11211040737685196;0.03424044557853396;0.0011762073924724524;162.0;0.11204655460322543;0.03413706915279549;0.0011691302696672926;165.0;0.111971846670916;0.034293584336831384;0.0011797383229734074;161.0;0.11252527051582503;0.041031099647574815;0.001689068148846824;156.0;0.1281774367388569;0.04254542339359217;0.0018151876142312405;155.0;0.12880688796334053;0.04232812932400494;0.0017971078400885593;160.0;0.12947575071861145;0.03959444285533725;0.0015727322461428976;155.0;0.12639456256688494;0.03884335743890938;0.0015136234531484933;155.0;0.12731182685736847;0.038654092657151855;0.001498622969572265;157.0;0.12744302268985902;0.03989057445606168;0.0015961234608111183;156.0;0.1297056672441614;0.043813658715356044;0.0019253722061565797;156.0;0.1354807134460955;0.04332732401702182;0.0018812237395518187;157.0;0.12712229421851207
0.03376990369064398;0.0011437873121264896;143.0;0.11841645583386971;12.0;0.03241147029970129;0.001053407334924291;143.0;0.11296672466371822;0.030886885652872616;0.0009565580950678592;136.0;0.10911839101191279;0.028928590645748705;0.0008390109374427898;136.0;0.10718797152958295;0.028059107279531814;0.0007890016916255075;134.0;0.1051409067155463;0.02730273708789984;0.0007469309040670944;140.0;0.10337179396940091;0.026453135053300547;0.0007012285222386895;148.0;0.10156768597303815;0.04327069447082593;0.0018772057791005166;158.0;0.12958311492906383;0.0343475299131651;0.0011836002110001674;157.0;0.11373072992244254;0.02948574582514512;0.0008718816433431262;159.0;0.11216076449924549;0.028740611403623387;0.0008286310860168666;164.0;0.11158191769511835;0.03020673643291998;0.0009154281007184414;154.0;0.11409464762096179;0.0343073111362093;0.00118084366454503;147.0;0.12020521000693726;0.04020870810511287;0.0016220296915977759;152.0;0.12810658593953533;0.04382758585963549;0.0019271882353116868;150.0;0.12973371312286397;0.032130416303441336;0.0010355066040923944;160.0;0.11002714681243578;0.054949199888963234;0.003028427661527084;156.0;0.13935543122829722;0.04799107957419174;0.002309767707631423;163.0;0.12935990960649318;0.04399809994821185;0.001941054744750133;164.0;0.1236477712143578;0.03819817255161352;0.001462924549937892;169.0;0.11515232656913868;0.03803503173333006;0.0014503986305078014;170.0;0.11498779920697413;0.03793682285844596;0.00144283018764925;170.0;0.11450693879939355;0.03790575227582284;0.0014404703736122628;165.0;0.11500676901217277;0.04555929194555758;0.002081733195193512;161.0;0.13096700944590411;0.04650556319625794;0.0021664554601230164;162.0;0.12789583619508837;0.04550777795583201;0.002075166045478204;165.0;0.1276442904607114;0.044512462151356604;0.0019867504898154627;160.0;0.12617179370179415;0.04245424776408758;0.0018073153359820975;150.0;0.12668258899900575;0.0405888542877861;0.0016525911012888704;154.0;0.12484822881284241;0.04117583320870253;0.0017008008942889557;154.0;0.12620893384279677;0.04423637433204902;0.001963185288416519;153.0;0.1317084792606831;0.04713127887045801;0.002226996029648713;166.0;0.12684708599606995
0.03796443938420843;0.0014410129832263304;162.0;0.12393617936025178;12.0;0.033666916712811926;0.00113360137284009;165.0;0.1164658897414701;0.03013965088163089;0.0009073942499189532;166.0;0.11155691233186707;0.028296483406554565;0.0008001017466321592;164.0;0.10915205325927835;0.0275647305495542;0.0007595100858729337;160.0;0.10780414779498351;0.027430780223170248;0.0007527564373930809;160.0;0.10775573718328482;0.026860567610297436;0.0007228965383936878;165.0;0.10432885846376173;0.049428767356543876;0.002445086270069499;172.0;0.13909459345216071;0.03425523813630669;0.0011771597172012534;157.0;0.11517409366368758;0.03152288060376825;0.0009959217459679544;164.0;0.11402267472343228;0.03174178602012931;0.0010105023283427032;166.0;0.11535620357345376;0.03383628362338075;0.001147569817479474;159.0;0.12021249804554349;0.04027584186700559;0.001624475339353116;154.0;0.12838401259377205;0.04778327858866553;0.002287683741829467;159.0;0.13832747087727373;0.05162230553485938;0.002667695169708087;167.0;0.14118552510446425;0.033272304676756355;0.001110349543500015;160.0;0.1142839340873047;0.04888608122620722;0.0023957254026906556;147.0;0.1360251105706328;0.04318054504049973;0.0018698755425009825;151.0;0.12598507262639166;0.040808053721880504;0.0016704915815931693;159.0;0.12067244496429715;0.037052969652722686;0.0013773746662705676;164.0;0.11260925998245706;0.036965463403839285;0.0013709223225780007;164.0;0.11298890555326377;0.036776275212700146;0.0013569265738990045;163.0;0.11222347903217979;0.03676720446450408;0.001356261855832965;160.0;0.11243032272052068;0.04128828873711367;0.0017098229769575213;146.0;0.12775185536596648;0.0494217958217213;0.002449912782696019;159.0;0.12391870416206446;0.04998906032835793;0.002505956603169712;156.0;0.124484242333309;0.04692452256445962;0.002208057598845296;150.0;0.12208105525324378;0.04078028217755055;0.0016677599241678048;148.0;0.12096887857640584;0.03749189128413837;0.0014088531398606468;151.0;0.1190951734491304;0.03649083188541819;0.0013342046096912136;150.0;0.11920254380355641;0.03840563492526882;0.001478593635805962;148.0;0.12330071805776005;0.05123437977942774;0.0026328576619588768;164.0;0.12453855473482628
0.049426524806415566;0.00245094921117893;156.0;0.13678404726436436;12.0;0.0475267091779161;0.002266168707913448;159.0;0.1315138340973436;0.04398371068372059;0.0019408205162531665;173.0;0.127716991719332;0.040234960781012644;0.0016238879297190035;173.0;0.123292861539268;0.03819317174895417;0.0014630939866976328;168.0;0.12110670607208815;0.03676039003019717;0.0013550465726780475;161.0;0.1195306009344624;0.03459302530558978;0.0011996798704189907;167.0;0.11605522647690357;0.05704744129500542;0.003265035263352167;149.0;0.14882032112817248;0.04455910947180433;0.0019907722015643954;148.0;0.12424651649633872;0.0397112277144385;0.0015810174795688418;155.0;0.12347015072078134;0.03948990808603701;0.0015640278702628526;152.0;0.12553518620505577;0.04237227453619514;0.0017998460061444989;150.0;0.12956285618118799;0.04903137583274279;0.002409909321048375;147.0;0.13710291658567916;0.05690684627287636;0.003245840098933677;141.0;0.1471030992162459;0.06100152858042496;0.003729819176999785;144.0;0.15318090006451057;0.04319287366839508;0.001870847637190067;147.0;0.12323166408434594;0.049512888213349655;0.002459446921763964;148.0;0.14600145233332446;0.04319936473453528;0.001872270395591378;150.0;0.1348965374858092;0.04204650848959862;0.0017736812810074762;154.0;0.12910979657133112;0.041950058722129126;0.0017655126125350462;165.0;0.12173261729590529;0.04201008824581824;0.0017705568315689551;165.0;0.1222057238156455;0.041872779162596165;0.0017590243394894265;167.0;0.12161784850269769;0.04191734896926978;0.0017627962539234346;168.0;0.12144038592113232;0.04404550162124589;0.001946359172708903;153.0;0.1389507807586488;0.06260891796251208;0.003932276062869758;152.0;0.1388183047045061;0.06357170821844348;0.0040533839557583525;155.0;0.14014029971393366;0.056694242289212805;0.0032236748331863473;156.0;0.13869436297452814;0.04954630880683769;0.0024626351859566293;155.0;0.13640437470509045;0.04673543173148885;0.0021912906771656766;164.0;0.13637953797378558;0.04517309177034841;0.0020473044711425544;166.0;0.13733073242792984;0.04711406880645094;0.002226826834959761;159.0;0.14100430937068528;0.06765691655079606;0.00459111074790923;157.0;0.13810564433923928
0.06032589713697798;0.003649915498146782;153.0;0.14209669498802166;12.0;0.058869498123133114;0.00347563976413118;153.0;0.13871924032781738;0.055852860041359635;0.00312863229860954;161.0;0.1364980579197597;0.05009409266682288;0.00251679049490558;162.0;0.13104895740176137;0.04744968595595301;0.002258366004213625;161.0;0.12710206458967427;0.04539232280968045;0.0020669575146127607;161.0;0.12417324040008555;0.04306771969755063;0.001860879832407886;162.0;0.12127101251836778;0.06706574525292547;0.0045117195552056;151.0;0.15110557415008097;0.051267865807831416;0.0026364636411056975;159.0;0.1300610521149381;0.04477463991541413;0.002011008356689037;157.0;0.12833193610462792;0.04325995641989765;0.0018770781157471334;153.0;0.1277160152039748;0.04665677363724913;0.0021838184351751647;151.0;0.13027144824688286;0.05395798810455385;0.0029207741259676717;148.0;0.13662550586106934;0.06319524305836402;0.004006637399908845;142.0;0.1467362305226148;0.06960418296256249;0.004860579545748555;147.0;0.15476654017912816;0.04746721075835312;0.0022602266798148144;156.0;0.1254963893394897;0.04997957706365401;0.0025049132656611507;159.0;0.14486754726562884;0.04467072158771363;0.0020016807060925816;163.0;0.1353421473310966;0.04373192134117729;0.0019184800232070686;156.0;0.13112930079703114;0.04509105647366691;0.0020398520838110818;156.0;0.12682546396737837;0.04478918548521128;0.0020126205123639487;155.0;0.12668527877186744;0.044777000741407245;0.002011525414448599;158.0;0.1261961500297825;0.044804346088479094;0.002013980375213773;159.0;0.12585603576705115;0.04666478974136741;0.002184244935796504;165.0;0.13984633167804444;0.0655104229174576;0.004300310592330759;157.0;0.14549941227650004;0.06675291336887065;0.004463234159550089;165.0;0.14625939474436145;0.06052436415273016;0.003671399037655814;166.0;0.14508283936202468;0.053768508270793866;0.0028981808883079157;158.0;0.1428140369798643;0.05033051761104537;0.0025392915075690965;161.0;0.14172229443709355;0.048913394767847965;0.0023973916979972143;165.0;0.1413615873393874;0.050943322298272635;0.002600326942741209;165.0;0.14439853169755823;0.07029163392719509;0.004952092749274595;160.0;0.14419831406429492
0.05122440970972282;0.002632016505510016;154.0;0.12618780070282573;12.0;0.047179823893235676;0.002232950316620597;154.0;0.11989235547416234;0.04547561005380498;0.002074814599599941;144.0;0.11673882302003291;0.041005235046626044;0.001686470753693249;149.0;0.1128068932593492;0.03927657596692735;0.0015470132612262991;154.0;0.10999833625835212;0.03795686100941083;0.0014445820390168995;160.0;0.10872762289654528;0.0367249789929074;0.0013521623524048584;155.0;0.10648726772159496;0.05861725807282238;0.003446347412389538;166.0;0.13843976829474866;0.03859436720674012;0.0014931494099419055;162.0;0.11667694831818048;0.035745932957648975;0.0012805513302286819;158.0;0.11622280322954934;0.034264840480632004;0.0011771977498352;149.0;0.11488987073045033;0.03735797242673454;0.0013982529796283394;155.0;0.11714609909966367;0.04346736359611876;0.0018927081456583579;153.0;0.12288951449270603;0.0513608901331282;0.002640965234940239;155.0;0.13183167256479517;0.057879395123746076;0.0033536381665644835;159.0;0.1379459959283081;0.03441189989681448;0.0011874714610445283;157.0;0.11195421947265012;0.04776052536434851;0.0022885367948052683;154.0;0.1343004546056634;0.042245932656459685;0.0017905649163863584;160.0;0.12705205120637597;0.03981429610957299;0.001590339424138952;157.0;0.12437100114058991;0.03832252689477422;0.001473421110962019;145.0;0.11906172009733851;0.03779578689144663;0.0014331987637091427;145.0;0.11832660341981899;0.03790320820819609;0.0014413560287325885;148.0;0.11808449328450969;0.03773538579052982;0.001428613879414438;146.0;0.11752241558868484;0.04386346510325035;0.0019302923342146088;158.0;0.1293875232733161;0.05612493145722248;0.0031602976314452093;154.0;0.1339593421867413;0.05715789528043444;0.0032775695080816303;158.0;0.13405841703367652;0.051139305995975104;0.002623715804180234;151.0;0.12942052295403447;0.04493942496761655;0.0020259959468725817;153.0;0.12825443073129975;0.04167470370762693;0.0017423007026803091;152.0;0.12810750095026038;0.04086346417102766;0.0016752773873605232;155.0;0.12787529466290407;0.04291987296204792;0.0018481269859660485;159.0;0.13062341462346297;0.05931313720034729;0.0035286412921721167;160.0;0.13388161116047326
0.046306184952627234;0.002151267908186031;148.0;0.11672907268291188;12.0;0.043444046338294275;0.0018935523663088847;145.0;0.11097779865658478;0.040451701395252206;0.0016416867379317479;137.0;0.10778240847381566;0.038352461638087906;0.0014757090320238972;136.0;0.10484773389359149;0.03678906992602751;0.0013578423127699661;144.0;0.10228371150587977;0.03538694765126328;0.0012563180155926513;151.0;0.10286429681610837;0.0347502229774162;0.0012114790154673124;145.0;0.10139799402984909;0.05452781295171857;0.002982844318634314;157.0;0.13064878302426605;0.038962179870186506;0.0015227638861066257;147.0;0.11039933915664515;0.03531739508201618;0.0012509656507411057;156.0;0.11097043525400263;0.03417284251640906;0.0011711690570148704;145.0;0.11121051115255083;0.036910434322989634;0.0013661714641771366;148.0;0.1127456123275176;0.04217783888136132;0.0017827138642907685;145.0;0.11898149035228492;0.05006022831921547;0.0025137797478195123;152.0;0.12723307565298003;0.054086046098103684;0.0029339408521729207;154.0;0.13152956162726911;0.0355882422670244;0.001270622605756458;148.0;0.10790616537099569;0.05191291504656989;0.0027038983043153894;160.0;0.13806108626649632;0.043811034033348274;0.0019258434919570808;153.0;0.12912568305934236;0.041054378387785376;0.0016911412815775466;151.0;0.1261776518844759;0.03937009701503831;0.0015552130831962521;154.0;0.12046506595631175;0.03925692872047432;0.0015462905933983678;155.0;0.11983277055351313;0.03940609004566342;0.0015580409542912176;156.0;0.1200017636224291;0.039161212850278786;0.0015387348754874863;155.0;0.11967730194989656;0.046038329678928146;0.0021266065763071544;155.0;0.1318905178956613;0.0628015679352104;0.003956776180963304;151.0;0.1326518551172278;0.06487496326909231;0.004222037219795281;150.0;0.13470802087900105;0.056707166173117336;0.0032254832502208596;141.0;0.12886169374669507;0.04814769524727283;0.0023255818475532456;144.0;0.1260544538283744;0.04563464867448085;0.002089312500223518;147.0;0.1272305076576855;0.046070577977158515;0.0021294349829717413;154.0;0.12979832858510168;0.04933187329739502;0.002441553285944039;147.0;0.13398342312037811;0.06472384931685381;0.004202108055959559;154.0;0.13162355015831495
0.046738977360212104;0.0021914130184246933;147.0;0.12010419701171912;12.0;0.044034371304993;0.0019452724752001484;142.0;0.11591947729099113;0.04019083920136199;0.0016205596029657938;151.0;0.11268681226639608;0.03782887428463204;0.0014355957411327001;142.0;0.1087997043331207;0.036476045237556674;0.001334800050335129;147.0;0.1065123177844091;0.03478637576894572;0.0012138187826108023;154.0;0.10632519287917463;0.034323150635412025;0.0011817245311735664;152.0;0.10516386735678711;0.05516913679401313;0.003052541609662473;148.0;0.13280372889638184;0.04068655283380692;0.0016607422131100752;147.0;0.11387840503125239;0.03729911650313549;0.0013957724687416178;150.0;0.11538883041666585;0.03631221107910685;0.001322601975233886;147.0;0.11457114704748356;0.03797018946173675;0.0014464580542134999;141.0;0.11549631935426484;0.04288664183181071;0.0018452237875957228;146.0;0.12236784055089404;0.05159728226730537;0.0026706477044991283;155.0;0.13152773419576524;0.05625822041193143;0.003172470459289353;154.0;0.13702533607653958;0.03671868651693411;0.001352622384936153;150.0;0.11055237852156403;0.054129471839491655;0.0029394440909179995;161.0;0.1425318707976335;0.04462760090694367;0.0019979236862419573;145.0;0.13140254562540346;0.04189861197774076;0.0017611509062607647;148.0;0.1267897088880067;0.041346964396242074;0.0017152123023323278;164.0;0.12145173348577677;0.04137537542900108;0.0017175590139093017;164.0;0.1207570128340298;0.04142535621825944;0.0017216967671786305;163.0;0.12120024676308158;0.041510649811115144;0.0017288064741502178;162.0;0.12140519974325541;0.046977199999611696;0.0022139850213491997;149.0;0.13681038776712912;0.06153342985814304;0.0037989729687406782;147.0;0.13780048212218707;0.06385190816308625;0.004090623268517113;144.0;0.13977853371489307;0.058148424350020746;0.003392396258071759;142.0;0.13627500977213441;0.050866724973728426;0.0025959493647053316;141.0;0.13301548202337804;0.049009644215051225;0.0024097128471971254;143.0;0.1333007890895415;0.049614456428026095;0.0024695764959280653;143.0;0.1347869932396926;0.053981124025168414;0.0029233751444875207;140.0;0.1404594191509016;0.05944286897755174;0.0035451986296031837;144.0;0.13448330578899365
