rms_s1_ch1;var_s1_ch1;zcr_s1_ch1;wl_s1_ch1;rotule;rms_s1_ch2;var_s1_ch2;zcr_s1_ch2;wl_s1_ch2;rms_s1_ch3;var_s1_ch3;zcr_s1_ch3;wl_s1_ch3;rms_s1_ch4;var_s1_ch4;zcr_s1_ch4;wl_s1_ch4;rms_s1_ch5;var_s1_ch5;zcr_s1_ch5;wl_s1_ch5;rms_s1_ch6;var_s1_ch6;zcr_s1_ch6;wl_s1_ch6;rms_s1_ch7;var_s1_ch7;zcr_s1_ch7;wl_s1_ch7;rms_s1_ch8;var_s1_ch8;zcr_s1_ch8;wl_s1_ch8;rms_s1_ch9;var_s1_ch9;zcr_s1_ch9;wl_s1_ch9;rms_s1_ch10;var_s1_ch10;zcr_s1_ch10;wl_s1_ch10;rms_s1_ch11;var_s1_ch11;zcr_s1_ch11;wl_s1_ch11;rms_s1_ch12;var_s1_ch12;zcr_s1_ch12;wl_s1_ch12;rms_s1_ch13;var_s1_ch13;zcr_s1_ch13;wl_s1_ch13;rms_s1_ch14;var_s1_ch14;zcr_s1_ch14;wl_s1_ch14;rms_s1_ch15;var_s1_ch15;zcr_s1_ch15;wl_s1_ch15;rms_s1_ch16;var_s1_ch16;zcr_s1_ch16;wl_s1_ch16;rms_s2_ch1;var_s2_ch1;zcr_s2_ch1;wl_s2_ch1;rms_s2_ch2;var_s2_ch2;zcr_s2_ch2;wl_s2_ch2;rms_s2_ch3;var_s2_ch3;zcr_s2_ch3;wl_s2_ch3;rms_s2_ch4;var_s2_ch4;zcr_s2_ch4;wl_s2_ch4;rms_s2_ch5;var_s2_ch5;zcr_s2_ch5;wl_s2_ch5;rms_s2_ch6;var_s2_ch6;zcr_s2_ch6;wl_s2_ch6;rms_s2_ch7;var_s2_ch7;zcr_s2_ch7;wl_s2_ch7;rms_s2_ch8;var_s2_ch8;zcr_s2_ch8;wl_s2_ch8;rms_s2_ch9;var_s2_ch9;zcr_s2_ch9;wl_s2_ch9;rms_s2_ch10;var_s2_ch10;zcr_s2_ch10;wl_s2_ch10;rms_s2_ch11;var_s2_ch11;zcr_s2_ch11;wl_s2_ch11;rms_s2_ch12;var_s2_ch12;zcr_s2_ch12;wl_s2_ch12;rms_s2_ch13;var_s2_ch13;zcr_s2_ch13;wl_s2_ch13;rms_s2_ch14;var_s2_ch14;zcr_s2_ch14;wl_s2_ch14;rms_s2_ch15;var_s2_ch15;zcr_s2_ch15;wl_s2_ch15;rms_s2_ch16;var_s2_ch16;zcr_s2_ch16;wl_s2_ch16
0.007763830544373098;6.046305667234524e-05;155.0;0.0634878618249377;12.0;0.016584107719395023;0.00027588027687675513;166.0;0.06812367388993093;0.016177757238732278;0.0002625462318618112;149.0;0.06634799669844901;0.015564076760351368;0.00024298805296007719;157.0;0.06510216706153737;0.015718318667299697;0.00024780100523645555;155.0;0.06415175065311758;0.01586521956869088;0.00025246272609033685;161.0;0.06494579635347215;0.016388963936636643;0.00026944299907893785;165.0;0.06718839787036383;0.016965782797792678;0.000288707167866939;159.0;0.06434522359032939;0.01902463929697782;0.00036305830081101393;168.0;0.06910052792875065;0.018665821368482396;0.00034951034050138786;171.0;0.06940148479789666;0.019422617210962268;0.0003784252493429665;169.0;0.06782909145127551;0.02024792738801257;0.0004112431726369296;165.0;0.06805458502813336;0.020022774993430005;0.0004021212557485653;164.0;0.06840522896915933;0.02014815194518224;0.0004071933610910948;168.0;0.0699396352971516;0.01987291443083902;0.00039611597945149235;154.0;0.07298620297666757;0.02024008796455997;0.00041099468773085434;158.0;0.06987599592374387;0.01170526654609119;0.0001374640426164669;161.0;0.06617685077418387;0.010588558429105588;0.00011248021669143555;160.0;0.06592022597564598;0.010249649658280586;0.000105396622137284;158.0;0.06499980924507402;0.009629971985759675;9.301874451265663e-05;170.0;0.06269445239643924;0.009269472261146189;8.618447914848021e-05;165.0;0.0621407623722376;0.009115602100871202;8.333830546573548e-05;174.0;0.06077506856390795;0.009898650081898075;9.829772243505016e-05;169.0;0.0621192138762599;0.011507142998829207;0.00013284415988631726;156.0;0.0666379555903608;0.009148087835384384;8.39594002655782e-05;159.0;0.05957974929141195;0.008130146014779394;6.631396978278729e-05;151.0;0.058931621376277075;0.008085732430850295;6.558590890820856e-05;155.0;0.058378299697045846;0.008001544031311729;6.423315222967756e-05;153.0;0.05745851918330428;0.00821443667630774;6.76896872058946e-05;163.0;0.057891996670694716;0.008422127554163529;7.115673992123403e-05;163.0;0.058360121346204094;0.008572048893638365;7.371209006145234e-05;165.0;0.057147054364535065;0.011344932666550702;0.00012910197474655087;154.0;0.06334328022489928
0.008658938030816611;7.512080059558723e-05;158.0;0.06550380079723792;12.0;0.015711028847053866;0.00024758422326193956;162.0;0.07047727499549314;0.013381542730938183;0.00017960563664657644;156.0;0.06679119197576627;0.012599023834423722;0.00015920681363372567;161.0;0.06601046201686182;0.011679420633290756;0.00013676982705303702;157.0;0.06422503911506751;0.012029673583858607;0.00014502750363385656;169.0;0.0646468034172058;0.01290744408916454;0.00016696700192924275;173.0;0.06851815982460079;0.01715703281482607;0.00029519082540046615;143.0;0.0692947675878333;0.014167215269056817;0.00020140664759034927;160.0;0.06482373358584027;0.014192123300373167;0.00020213078497637998;159.0;0.06501848734330025;0.016152716922588833;0.0002618311832020327;156.0;0.06612249256406343;0.01814513206908688;0.0003303918200507645;160.0;0.06811120649047489;0.02213318129737111;0.0004913174508129497;169.0;0.07057023156606725;0.027807365386424178;0.000775162918949785;169.0;0.0745769520433432;0.03649362376241482;0.0013353903646729465;147.0;0.08109601912645029;0.015557819295186686;0.00024290760878655057;158.0;0.0667943196252144;0.013308837752808488;0.00017703461242597564;150.0;0.07210383113256869;0.01228570373065337;0.0001509454037724359;151.0;0.06911124781036125;0.011391545924451529;0.00012961859874416353;150.0;0.06727907283619804;0.010043244242608116;0.00010064935346249495;159.0;0.06327350803579622;0.01002852246860923;0.000100486703399987;153.0;0.06190660512627639;0.010071497459357008;0.00010145697549226379;148.0;0.06051278427298735;0.010722896019714516;0.00011505346254007269;147.0;0.06090465916793731;0.013444569998622336;0.00018078114348500939;150.0;0.0713663523466272;0.00964062666315407;9.320429301682117e-05;155.0;0.05930418178885426;0.00857905420973249;7.373985213878383e-05;143.0;0.059178796029806774;0.008772584428964121;7.708412835902847e-05;152.0;0.05914621799915297;0.008822800298264925;7.791371382517235e-05;145.0;0.06037188722076799;0.008932573830018237;7.987215479029923e-05;155.0;0.05907374219474016;0.009269278681388002;8.603717790306709e-05;155.0;0.059971984304652;0.009678168380331935;9.373307289215465e-05;158.0;0.06019277116735491;0.010704668218291552;0.00011493044379918865;149.0;0.061698401108163346
0.008391350287808118;7.064310299155719e-05;151.0;0.06533161255714483;12.0;0.04460336605977735;0.002002652005695438;144.0;0.11987824310508606;0.030880948633730688;0.0009529936797316684;142.0;0.10649292822895132;0.03042064835400016;0.0009249842186282892;138.0;0.10500722750775339;0.030799786384020814;0.0009487259767461112;141.0;0.10394094826495198;0.03321680286728516;0.0011038565448793735;143.0;0.10422043185843222;0.03451592270069495;0.0011925525495503097;148.0;0.10647773712926875;0.03312903781723851;0.001097228599065172;130.0;0.10961807349409917;0.03099608064320171;0.0009623241068775018;144.0;0.10136551204924993;0.030523937707226858;0.0009333685059086814;139.0;0.10098708608623891;0.03147531454415666;0.000992739671445557;137.0;0.10193509113627419;0.033838512148612186;0.0011475915289311087;148.0;0.10357111719463274;0.036618174761763364;0.001344187049219888;150.0;0.10736756628138336;0.04155581169335648;0.0017314093266126748;148.0;0.1121432049143085;0.04913144717927162;0.002420667814513925;142.0;0.12016119731796757;0.03510823551923343;0.001235911692890755;150.0;0.10283898713105248;0.016954418427897612;0.0002883114615088971;159.0;0.07685325314371559;0.015380905829744232;0.00023731774881812344;157.0;0.07369274988829609;0.014217618373230394;0.00020277887761863003;154.0;0.0722776138894339;0.012793329963151006;0.00016420558632335733;160.0;0.06844537099690197;0.012372622248715987;0.00015358535766832446;159.0;0.06470150793387451;0.012119263469644443;0.00014735287656773507;152.0;0.06233513987120987;0.01257211818914563;0.00015857322158019472;149.0;0.062432066178938504;0.01673375592485664;0.00028088682222608116;153.0;0.07431033964755406;0.009341689549928475;8.755138629857265e-05;151.0;0.058222630849346646;0.009256278831479812;8.59521891533179e-05;138.0;0.059935980082068914;0.010065453333680918;0.00010164370378666456;155.0;0.06115996537918001;0.010376073908455862;0.00010801055526535827;144.0;0.06162529947467898;0.010533816841302139;0.0001113242564897075;151.0;0.061707721666453975;0.010606820663072433;0.00011287409242434891;148.0;0.061648563617847145;0.01111405106962131;0.00012391619500042925;154.0;0.06198707373620912;0.00987436672516622;9.776587624087812e-05;153.0;0.06153699046015118
0.007709155284858087;5.96117830182553e-05;152.0;0.06397770016199442;12.0;0.1907367598380406;0.0364593942864178;131.0;0.17045854927389695;0.048804311865986064;0.0023855060385879847;164.0;0.13050748200743303;0.049132264708198786;0.002418130796422062;152.0;0.129404634167526;0.050427378482019315;0.0025468564435953403;154.0;0.12840276403675324;0.052977594768761196;0.0028117132071982165;145.0;0.12822495726588196;0.05421287910867389;0.002944482182664242;149.0;0.12873130492544282;0.04505412975655391;0.00203157994102968;160.0;0.12897911677277304;0.044621405661199535;0.001993297867486557;165.0;0.12291192493232167;0.0437108142227828;0.001913202914128874;162.0;0.12200049038847673;0.043664691091459554;0.001909113366939135;165.0;0.12114739083245003;0.045063281699798216;0.0020343134595023687;164.0;0.12272828628353796;0.04651875944553662;0.0021686096241971746;161.0;0.1251553113967737;0.049506060654544;0.002457538533144373;161.0;0.12971545038603177;0.05370892559008397;0.0028924132469855678;158.0;0.13723504472415843;0.048403441904815714;0.0023456439249425185;172.0;0.1234261762265056;0.020427484420477655;0.0004183662473132082;161.0;0.0747874563342801;0.017245948373592744;0.00029820552344351543;157.0;0.07161364759141915;0.016115007537979592;0.0002604145283461319;156.0;0.07164983488815915;0.013982010254487419;0.00019605104516601577;159.0;0.06912037616890813;0.013253435669547332;0.00017618732001824464;150.0;0.06617137561342165;0.012761450672448013;0.00016326936103370265;155.0;0.0642976257827485;0.013218524204167297;0.00017517259631298184;153.0;0.06494052913698883;0.021952317469096396;0.0004832108666846566;157.0;0.07299641081033159;0.010721132432467043;0.00011531248914682825;146.0;0.06253650248920899;0.010770665829956208;0.00011638363845358296;138.0;0.0630293847823529;0.01115914816654959;0.00012492152505297612;154.0;0.06383074462179152;0.011374177563941218;0.00012974352859711208;154.0;0.06247475739175978;0.01162868651934665;0.00013565607312635572;154.0;0.06314174308173132;0.011679096852310056;0.00013682117593492377;160.0;0.06257562293697329;0.012170224742332553;0.00014854487348658;155.0;0.06386069882978512;0.01142618049128441;0.000130981438324215;147.0;0.06429688079027103
0.008137755241073194;6.641991608645991e-05;160.0;0.06594095262951497;12.0;0.26628394379805576;0.07105613574279528;151.0;0.19394568826972064;0.05262500442367492;0.002774378164983506;171.0;0.13023601396259235;0.05177530895718604;0.0026862241768694332;163.0;0.1288555583674276;0.05199887269230716;0.002708664488038138;159.0;0.12713946248028876;0.05294137042507263;0.002807576229659693;157.0;0.125719908277948;0.05311621642825135;0.00282662035518897;153.0;0.12476357583726541;0.045661897955361956;0.002089471233243387;162.0;0.12151835229074477;0.043749946926230854;0.0019191756454203079;159.0;0.11657231620937118;0.04291923486035862;0.001847223244295825;159.0;0.11599908608291036;0.04333450356945615;0.0018834927053319945;163.0;0.11503515760609984;0.044377825975810754;0.001975647540131078;161.0;0.11641629896557852;0.04661700799648665;0.002179822079273256;161.0;0.11844663281038165;0.050217388565075474;0.002529451497841081;162.0;0.122623918874432;0.055523298770078056;0.0030918708857358055;161.0;0.12880580002840708;0.0445907780509268;0.001993918011129432;160.0;0.11678742642721471;0.019920720947259114;0.0003981372298688887;160.0;0.07716268293598864;0.016632328266841287;0.0002775438619966689;153.0;0.07447198322305942;0.015676868640713753;0.000246553861032575;153.0;0.07339374693277487;0.013712336663867165;0.00018859941177253468;154.0;0.07023379333866596;0.013677477775416228;0.00018759203454623153;143.0;0.06883525684501234;0.013825639756563934;0.0001916809086624311;135.0;0.06950607270604638;0.014258360408228544;0.0002038091080298269;140.0;0.07173793375376958;0.022226044974190194;0.0004955887056021174;160.0;0.07596109966507829;0.012743143520184692;0.00016291666530053928;146.0;0.06689295633806956;0.012417463263849723;0.00015469737654341526;141.0;0.06585040014675597;0.01203864619768464;0.00014540320664692175;145.0;0.06649494417519942;0.01191765917200477;0.00014249169486326885;155.0;0.06546079597470916;0.012306939702458403;0.00015195876999535307;158.0;0.06656169975732215;0.01229409469885082;0.00015163918984644967;162.0;0.06580866131619746;0.012678283197649963;0.00016126559500143577;155.0;0.06755464466348061;0.0138309527223548;0.00019190022756826407;154.0;0.0674543594785984
0.008512931480100013;7.268380537505295e-05;152.0;0.06788597902293876;12.0;0.22012044640534417;0.048606518258027864;152.0;0.16547270325609426;0.04387803894647344;0.0019276945095116488;149.0;0.12338199192491801;0.04217412619328432;0.0017804563894368247;152.0;0.12156231993850494;0.04172918811731584;0.001743201265687001;148.0;0.1201349725280496;0.04185409793898913;0.001753458027263942;153.0;0.11903368735797475;0.041098449529729894;0.001690989100816125;151.0;0.11793300823487458;0.03963784389938725;0.0015742522221920728;146.0;0.11522052522427623;0.0340079385839875;0.0011579315464086764;147.0;0.10944214078371557;0.034012656884406085;0.0011583236427690218;145.0;0.10818059189618266;0.035691544468867055;0.00127496944334373;148.0;0.1087388168642315;0.03751722540494354;0.0014091593490214932;154.0;0.1097801698624606;0.039474103118814476;0.001560785457466544;150.0;0.11126325048125604;0.04204374571633996;0.0017707142696750003;149.0;0.11457516683038317;0.046994664967229774;0.002213246950876925;149.0;0.11940743807250627;0.03376163555762114;0.0011415363532760354;143.0;0.11035628147174033;0.020393685878869174;0.0004169737442130059;153.0;0.08309790620275491;0.018464900451019173;0.0003419015562579109;154.0;0.0809119854302175;0.017614269490955185;0.0003111864845008196;150.0;0.07968751996941081;0.01621143245564145;0.0002636625853726661;156.0;0.07566514749227167;0.015447542271363673;0.00023940722093456317;155.0;0.07358133465538973;0.014942718341749392;0.00022401544147229044;147.0;0.07316595377226412;0.015117796117260971;0.00022929519975612147;145.0;0.0747876778686196;0.0219838791912461;0.00048451427504470247;151.0;0.08215649464524968;0.012820595535596542;0.00016490287236097957;150.0;0.06950917210372738;0.012753465977010232;0.00016317928018202537;142.0;0.06805958316589304;0.01270894288572989;0.00016202506450709774;137.0;0.06948849944346666;0.013501761080934841;0.0001828193075044589;141.0;0.0696566315190708;0.014045634587575616;0.00019778497110069452;139.0;0.07002033423797198;0.014540698837454067;0.00021199775172653221;143.0;0.07103401600043079;0.015036771648360724;0.00022674072295380754;143.0;0.07171663076269776;0.013813562430629275;0.0001914282640137391;157.0;0.07028331212415352
0.008295783130616317;6.904391242208664e-05;144.0;0.06458211277779627;12.0;0.10834854664426034;0.011626737805627283;147.0;0.11745443280104696;0.0370405542717803;0.0013755142078932347;142.0;0.11338168362585886;0.03714286562260146;0.0013834651440829343;143.0;0.11313973902477206;0.03817571711403398;0.0014609786529946461;136.0;0.11292715757974642;0.03913615843189133;0.0015347276256186012;139.0;0.11405588812665238;0.039251646269178105;0.0015441393171787652;140.0;0.11464168099258126;0.03597888771722391;0.0012986405431537288;141.0;0.11006134574784714;0.03349299690981207;0.0011250175283915084;140.0;0.10881030093736088;0.034524409972575186;0.0011957146162571222;139.0;0.10809059282726173;0.0358415264967729;0.0012886710272004469;139.0;0.10835628709448067;0.03731998013593627;0.0013973133216485121;145.0;0.10973455701591495;0.03740934342150697;0.0014040122014639166;145.0;0.11100935916675675;0.03843400691002513;0.0014818856966684324;139.0;0.11520256717334533;0.04206507094854024;0.0017751087417275041;142.0;0.12016037618087416;0.03347544052605965;0.0011233830457866416;144.0;0.1098975077745921;0.026852506759544762;0.0007233961476226005;146.0;0.08622132127115738;0.025029039585230686;0.0006284099809931102;151.0;0.08364712449221753;0.02398448336999238;0.0005770111391483721;146.0;0.08221712938463911;0.022417542259654696;0.0005040212245340656;152.0;0.07859862054952681;0.020971174549407178;0.00044099802884155144;147.0;0.07459352615440962;0.02056477002946971;0.0004241143344967616;151.0;0.07510414142886415;0.019559167073962515;0.00038359645232331703;148.0;0.07726995178823691;0.02899454635877245;0.0008434329135490229;140.0;0.08529771161807675;0.02036796665070247;0.00041600208634612026;153.0;0.07349840564794313;0.020465253424567578;0.00041993804974966697;149.0;0.07327854432809676;0.021053964578326565;0.00044457042303262296;146.0;0.0737042214874203;0.022148578698884484;0.0004920640102332515;145.0;0.07351360285808946;0.022553604385230297;0.0005102350754863643;141.0;0.0733633964725947;0.02335055445861352;0.0005469423045628202;141.0;0.07443476733867668;0.023763285984937575;0.0005665134990015562;142.0;0.07495746514431095;0.02031651849032744;0.000414004009950481;149.0;0.07252931594567301
0.008180243876861195;6.705746398239708e-05;156.0;0.06491184652893939;12.0;0.046791165184921005;0.0021836326825979166;150.0;0.10643357889254601;0.03197608337672137;0.001025608154868218;148.0;0.1053772744775306;0.03297139855658975;0.0010897662530161658;150.0;0.10655407566492683;0.03475041999189247;0.0012106393442306402;146.0;0.10756332136754376;0.03646354717554118;0.001332595157002409;144.0;0.10838821371018319;0.03736812300320484;0.00139994667703305;145.0;0.11044408457440563;0.031180409533995822;0.0009753938755374281;141.0;0.10277568160812546;0.03288465189345078;0.0010841741832360145;152.0;0.10531483941067392;0.03346706999842579;0.0011226167892160505;150.0;0.10424836816818303;0.03352235809998893;0.0011262243034282488;151.0;0.10324444133877723;0.03374800109389643;0.0011414453823704615;147.0;0.10372711279715394;0.0322678610790653;0.0010436822756907673;149.0;0.1045138575157084;0.03223906805208874;0.0010425404807074053;140.0;0.10658994453910839;0.03443844952469063;0.001189865153123637;142.0;0.11003590509046003;0.032825103042810916;0.0010806590429651647;153.0;0.10467837470485512;0.050711638263821246;0.002580070338555348;149.0;0.11258744606798458;0.041368543409788544;0.0017169558908726578;151.0;0.10318722368813264;0.03605781901688161;0.0013043573320103059;150.0;0.09650103394791874;0.030421170305719232;0.0009283472632438332;145.0;0.09028087892894947;0.031375184541597;0.0009874078243385397;152.0;0.08962429713706224;0.03469278425724464;0.0012072797420980338;153.0;0.09449764868571657;0.034377513450180745;0.0011852957857694483;156.0;0.0979674322975818;0.05535251848678455;0.0030738959355818586;148.0;0.11399086191134648;0.02853607063626222;0.0008163826022306419;154.0;0.09108632010588509;0.02969298741971159;0.000883994259714261;155.0;0.0926651015515655;0.03285786527026976;0.0010819712271907004;154.0;0.0947888499164375;0.03480947760581963;0.001213793703709097;148.0;0.09664847873654793;0.03466904109276358;0.0012038359555323914;148.0;0.09617769817367094;0.035610034536440176;0.001269737095281926;147.0;0.09705364769178207;0.035963168919946664;0.001294703272727225;151.0;0.09767940099762605;0.028071196950554766;0.0007901090633347372;144.0;0.0892489276590261
0.008486874959991179;7.226222680468316e-05;157.0;0.065445912223171;12.0;1.1430958404392884;1.305826833909543;143.0;0.32668455260402934;0.02443337004190647;0.0005989886775817148;144.0;0.09298463891292919;0.025130683594661658;0.0006336716469426519;145.0;0.09209499222428925;0.02667202448491032;0.0007137125699939211;145.0;0.09242140697228271;0.028633959344998045;0.0008226072807269189;139.0;0.09231145601814457;0.02955722781393481;0.0008764192101270025;144.0;0.09406740216129292;0.023132525457909815;0.000536912240988398;150.0;0.09255035069039107;0.025391297788816374;0.0006468399774578987;151.0;0.0932422584590929;0.02542495477805962;0.0006485942333408317;144.0;0.09168904826210511;0.02589147936149222;0.000672637761111849;154.0;0.0917282261590727;0.026375364386877893;0.0006980641938471024;154.0;0.09259823595944283;0.02528984343055085;0.0006417819653710297;149.0;0.09235548665704607;0.025047745710644147;0.0006294244917518866;154.0;0.09386474649736615;0.02453837794020563;0.0006041462351621696;156.0;0.09504945810573064;0.02609556259502782;0.0006832686030916972;147.0;0.09277569532927064;0.07531250964809079;0.005690579514060417;146.0;0.15622528201840175;0.06645063206300189;0.004429417286394598;144.0;0.14774965128883955;0.06265786819737117;0.003937968639207553;149.0;0.14211548065554672;0.0609140937462366;0.0037212321384481805;145.0;0.13678769344230451;0.06438062718260704;0.0041559510698282376;161.0;0.13681809404935852;0.06853662975932988;0.004709661864040681;159.0;0.13982093366691167;0.06671733173194438;0.00446321705339331;161.0;0.1401291921813057;0.07688535367683962;0.005930507223812614;154.0;0.1568275289957344;0.06192672505674348;0.0038411585649233207;150.0;0.13246823448118478;0.06375509393929896;0.004071721412411944;148.0;0.13538733451351367;0.06960222708774506;0.004853252917451478;143.0;0.13961851492553382;0.07641907087463162;0.00585065148731476;137.0;0.14471482786501638;0.07811719734928115;0.006114036497969768;137.0;0.1448659636795476;0.08121365427768751;0.0066091662608336365;142.0;0.14784905094679354;0.08338177203603442;0.006968624766702079;143.0;0.1523551283716458;0.06048560807932216;0.0036657897307174067;143.0;0.13048847465365157
0.00881503808710202;7.791614479880526e-05;152.0;0.0635503193744134;12.0;2.265993466803294;5.151460128513765;150.0;0.48788054637522427;0.036258976954458344;0.001318652769299623;143.0;0.10660776531580186;0.034469619514814545;0.001191711598340595;141.0;0.1044947332190018;0.03429680573611733;0.0011797098861771095;144.0;0.10201980637076559;0.03849324595204178;0.0014860820762669085;141.0;0.1040146978898595;0.03909273536242053;0.0015329243602843394;146.0;0.10415573043587278;0.03171933600988716;0.0010088304324594717;153.0;0.10531394819068789;0.03313462487009458;0.0011007940854160978;148.0;0.09944854296503705;0.03418691049738306;0.001172036759184767;137.0;0.1008810086360368;0.03748327010872487;0.001408731416317488;148.0;0.10262975238857726;0.040530622780199026;0.0016475557902218762;155.0;0.10528821223361903;0.04192088977725637;0.0017626800847943941;148.0;0.10709399320858011;0.04124331112350248;0.0017064004768625586;157.0;0.10994748995787376;0.03925210920717864;0.0015452956404246269;164.0;0.11285003580013939;0.03314280698233355;0.0011016611547480198;149.0;0.09920057716931437;0.07829705079624989;0.006150453534860881;147.0;0.1545149943614687;0.0729711134689827;0.0053421780652833945;154.0;0.1516592034126614;0.07120137788648204;0.005085687598349666;160.0;0.1490398434231615;0.07087422748341381;0.005038590179268843;164.0;0.14652061204164368;0.07292794125773279;0.0053340445067091525;173.0;0.14596174741861456;0.07523893166088115;0.005676457286457847;174.0;0.14654684806374518;0.07148967774636143;0.005123725121858086;176.0;0.143866787100759;0.07871464181476344;0.006215721697910339;148.0;0.1531652923969717;0.06921625993093407;0.004803524861277023;162.0;0.13586806823759362;0.07095257130045722;0.005045758634079041;162.0;0.13855455453640392;0.07656893159147307;0.0058763969792825655;155.0;0.14141049507335984;0.08443762490687398;0.007148146876427156;152.0;0.1460036329538973;0.08655692917039289;0.007510500636781716;151.0;0.1471212191504517;0.0901390893204489;0.008145256848164485;151.0;0.14985117151274657;0.09270767286633315;0.008613220230485916;151.0;0.15601638557284983;0.06787813370526678;0.004617330917450582;164.0;0.13350922179359984
0.009183095187270245;8.460171797187794e-05;162.0;0.06577537086491102;12.0;2.044093691270842;4.189178881753491;148.0;0.4028808882464317;0.04599847896524045;0.002122749743948688;154.0;0.12342950487698148;0.043811142431194536;0.0019256892717625517;153.0;0.1213192568778989;0.04348475347927842;0.0018969938057665926;150.0;0.11957339208553741;0.04735511426741918;0.0022494778759383537;151.0;0.1209258392592604;0.04787536370019545;0.0022991453329186053;152.0;0.12174652638922949;0.039497654535324014;0.0015650816278576535;143.0;0.11904885584688996;0.04144049264442766;0.0017228640762766562;156.0;0.11187303841684391;0.042777137039876255;0.0018357855998610156;151.0;0.11365462704285116;0.04553668288866385;0.002080354767147169;158.0;0.115140435524516;0.048019305627041146;0.0023133660789501137;156.0;0.11691860682214324;0.048830937542588826;0.0023922531058757687;158.0;0.11986845220692405;0.048216519492694045;0.0023324213094616762;153.0;0.12164626868084838;0.0480029778651218;0.002311754979986558;156.0;0.12721949648871525;0.039696307028931975;0.0015807780097579433;158.0;0.10920633463687951;0.05777937996187595;0.0033475713722295663;164.0;0.12034576993958357;0.054107935803453536;0.0029366345077315465;173.0;0.11852979898143377;0.05200024100652825;0.002712662153610662;173.0;0.11548776314344367;0.04865946358976942;0.0023754044355464798;171.0;0.11322710776159998;0.04777533062014375;0.002289949358994742;177.0;0.1133347885623138;0.04769460327586208;0.0022820704432318425;179.0;0.11371676277004236;0.0445987934271704;0.00199532419793926;181.0;0.11141612873144632;0.05879206966389503;0.0034640298769924183;158.0;0.11786386953553242;0.04217401688750654;0.0017837193344585997;170.0;0.1039235151325418;0.04319950453581346;0.0018709807040134742;170.0;0.10513618535242714;0.045696269393495546;0.0020941687101826674;162.0;0.10524337371205153;0.049930078020387604;0.002500570017122462;156.0;0.10658579320207867;0.05091678219107759;0.0026002436023405406;156.0;0.10801530332149197;0.05295498935184676;0.0028126674565604687;154.0;0.10945372349273351;0.054481148741486234;0.0029764542786803747;158.0;0.11253583140108801;0.04187553069537477;0.0017582707965232355;169.0;0.1024207391653138
0.0093322088959756;8.736637549065959e-05;156.0;0.0687522297877885;12.0;0.613956969475206;0.37816543256148266;151.0;0.2141884087528311;0.04645208095992493;0.002162833597946093;149.0;0.12041133264600219;0.04449255187536308;0.0019840963420897167;148.0;0.11767203161768104;0.043707995685520425;0.0019146217513862987;138.0;0.11664087894820914;0.04429699996379062;0.0019669404790669857;138.0;0.11559833746087726;0.04405817274426557;0.0019448822415052214;138.0;0.11517281420218062;0.03979426181463891;0.0015876189015897962;135.0;0.11265717218533912;0.04366979245909855;0.001911496557689102;134.0;0.1110498757028891;0.04387329540730962;0.0019290606918648551;135.0;0.11119195763616678;0.043856225321346344;0.0019274914730923658;139.0;0.11062219392379508;0.04397837630401949;0.001937614915467775;136.0;0.11087143286776902;0.04279374688264512;0.0018335046639137717;142.0;0.11136686557692621;0.04265392244151767;0.0018217228734867601;138.0;0.11333105714886542;0.04394977443651417;0.00193606087522283;139.0;0.11783975205052316;0.04072760671689465;0.0016622150190502918;133.0;0.10788809262072707;0.04367510153970325;0.0019137769174316734;168.0;0.11419009061135449;0.042060420920820886;0.0017749107547978644;171.0;0.11023821192689734;0.040703755498432095;0.0016621076938627165;167.0;0.10637429075563824;0.0386645040645341;0.001499725838715603;167.0;0.10494249325700217;0.03837536663878989;0.0014772044885798647;162.0;0.1057070512310496;0.03780557805410594;0.0014336949250378544;164.0;0.10550180062524116;0.03716198597109358;0.0013851950346204505;162.0;0.10553290980441288;0.04257354081251652;0.0018183303540094567;164.0;0.1116696384479052;0.03528080821985629;0.0012488298121129877;164.0;0.10205827403915883;0.03498640661355981;0.0012281062751033813;162.0;0.10115983942830577;0.03549927466592863;0.001264302998494983;156.0;0.10089033191529383;0.037602957687141274;0.0014186784212521448;153.0;0.10207218800862623;0.038231108425277424;0.0014664437534133536;156.0;0.10345265407681006;0.03946291654347106;0.0015625143610500172;158.0;0.10604443495550034;0.041334728506068875;0.0017143223388540979;153.0;0.10978915988971327;0.0341621850213034;0.0011708393354097513;161.0;0.10081392089747902
0.008923001240751644;7.981489548248091e-05;147.0;0.06855254861363827;12.0;0.6973408809564657;0.4870829691767486;156.0;0.2638231569346147;0.04010541794773774;0.0016106796283459793;157.0;0.11300013878665914;0.03846237085101906;0.0014815535106713158;155.0;0.11214860437342572;0.03770936505838604;0.0014238304369854368;155.0;0.11106282602585238;0.03783321535829868;0.0014329659003433106;151.0;0.11014563362035162;0.03716951357813686;0.001383093084725805;153.0;0.10888830842780683;0.03525021641024758;0.0012448181069299178;155.0;0.106263789148965;0.037915392617063365;0.001439734624767568;144.0;0.10576469853533012;0.037869701436917196;0.0014364256176669426;146.0;0.10579358035971917;0.037729873761621055;0.0014261842545910824;146.0;0.10537619355712584;0.0376487995143916;0.0014198058748845098;147.0;0.10523464053469488;0.03730543831516536;0.0013947776436536968;147.0;0.10536444879274949;0.037970655780166306;0.001444587981783966;148.0;0.10849292465402555;0.03936809939818337;0.0015529419799780592;150.0;0.1137452232412664;0.0353113752653328;0.001248689862483871;141.0;0.10317355280197388;0.05076808097149065;0.0025854302306005223;163.0;0.11405105017302127;0.04798968647479805;0.0023102489544078978;163.0;0.11102439007866233;0.046417172885610904;0.0021615488623695223;157.0;0.10816239879216008;0.043862815499071936;0.0019302003647901794;157.0;0.10675872073682548;0.04295133931701588;0.001850799730701856;151.0;0.10720478734124791;0.04219120702336963;0.0017859182449933466;153.0;0.10635482136474259;0.04167940411275135;0.0017428515205132453;152.0;0.1062621830111728;0.05137504030726483;0.002647691773169403;162.0;0.11346690341039703;0.040456864313436584;0.0016416098353070551;163.0;0.1041745200619864;0.040542243310737816;0.0016489126305782049;162.0;0.10363143632358747;0.04180780158696987;0.0017535152660729375;159.0;0.10365687020113906;0.04481179176027206;0.002014538264940603;162.0;0.1058017129941099;0.04601193884908999;0.0021238016545180247;159.0;0.10750983349124676;0.04754940345994695;0.0022681690226608008;163.0;0.10997230457107944;0.05010291333856739;0.002518415463548277;158.0;0.11471650684838625;0.03858843428700622;0.0014934655462286576;163.0;0.10216736723757326
0.008233265676612606;6.799730607469394e-05;154.0;0.06488285250731886;12.0;0.7318242289734896;0.5372115081741765;150.0;0.25985693931404674;0.03019970628922227;0.0009114886908170683;163.0;0.10120410218996446;0.02961852291366856;0.0008768303100567796;164.0;0.10133139004106646;0.029847599040797007;0.0008918137674599518;169.0;0.1009288271152233;0.03031252745789394;0.0009202734862581537;165.0;0.10032241538237832;0.030270152607042498;0.0009172165544343722;168.0;0.09981060163771142;0.028250748225429917;0.0007975517596670685;167.0;0.09857778367278941;0.027913454601078566;0.0007795229801100814;152.0;0.09359604693224598;0.028543931719388373;0.0008142639919040659;155.0;0.09405977325776985;0.02959560302699237;0.000875280419714074;160.0;0.09463861314734388;0.030652067137316726;0.0009384921076677203;160.0;0.09641255828362628;0.031382674574082045;0.0009835865274705879;157.0;0.09895496303177158;0.03277918183391609;0.00107212476911459;167.0;0.10357557452734407;0.03445008857702339;0.0011833984436319474;169.0;0.10967600462220785;0.027467338019629816;0.0007545380187559722;147.0;0.09166202293330503;0.04726864413200863;0.002241378474149379;168.0;0.10882202352832662;0.04432082018921892;0.001969953306923179;162.0;0.1067678392782232;0.04254282112590555;0.0018144782352082453;163.0;0.10589985236496845;0.0397196166770431;0.0015793510753659519;154.0;0.10361769532176035;0.03890319658428791;0.001511289447552474;151.0;0.10161698456014479;0.039113709193552275;0.0015265639310817324;152.0;0.10048409544195178;0.038900554066920195;0.0015095549482131594;153.0;0.09893567797343239;0.04846986066957522;0.0023565549881390873;169.0;0.1091630101061277;0.03629083127895644;0.001318999800218831;159.0;0.09469540833661702;0.036968544534924645;0.0013695885862375285;158.0;0.0965328214841319;0.0394953507173975;0.0015637861564907283;159.0;0.09793975110319665;0.04358301322361384;0.0019043236857949225;161.0;0.10040546099498135;0.04547035348662192;0.0020729732972651184;158.0;0.10253116680727774;0.04739641439614023;0.002251972240669869;159.0;0.10451796223318861;0.05074888048970842;0.002582211630271288;160.0;0.11000884581237719;0.03550796236125128;0.0012630945904584614;161.0;0.09331227290863095
0.007908346459408579;6.265816315739376e-05;160.0;0.06381151192182792;12.0;0.29946114577640603;0.08979096490313342;155.0;0.13857347271977724;0.025429615158284218;0.0006482474131614024;158.0;0.09242464616210751;0.025384976108789016;0.000646013773378312;157.0;0.09144810541468251;0.026112682013916123;0.0006829605859395141;161.0;0.0920706632463181;0.026063571849667563;0.000680243523817384;167.0;0.09123828191488229;0.02664360453578098;0.000710914806874115;168.0;0.09179811254372502;0.023905316576610245;0.0005728326798755531;150.0;0.09094518672486389;0.02394364255584522;0.0005739661463812031;145.0;0.09060384794272776;0.02376059582235556;0.000565446849097904;147.0;0.09045364222590996;0.024520359009390053;0.0006025417713471906;147.0;0.09039374881083348;0.02577822862559974;0.0006658228060796966;145.0;0.093627056413044;0.0272959346019017;0.0007464965607340104;146.0;0.0961420283655534;0.029287059440388487;0.0008590832240526049;157.0;0.10058750027976564;0.030820541628337257;0.0009508425199575342;156.0;0.10458637287893802;0.02403408488605847;0.0005781463247228968;140.0;0.08633463794176219;0.037866967528033965;0.0014378702545141;157.0;0.1068796596388269;0.036160892395635316;0.0013112826346260002;159.0;0.10438589587715953;0.03454245770015557;0.0011966174735337685;162.0;0.1031316001486137;0.03344107303754362;0.0011218708228174959;161.0;0.10187116291854668;0.033569619980964055;0.0011306254908777364;155.0;0.10017883069309566;0.03426427689329476;0.0011779149305564801;158.0;0.10006106964565349;0.03452312702525797;0.0011957803365830466;157.0;0.0986555304429981;0.038333157328067684;0.0014735121933950723;163.0;0.10686636122850061;0.03106626409547232;0.0009680562405965187;142.0;0.09385925769551783;0.031822856473359466;0.001015736862141174;140.0;0.09550466812093278;0.03396555943157153;0.0011571401173834518;141.0;0.0976269406803483;0.03707239994652949;0.0013786815992753744;142.0;0.09971551605388061;0.03871403307376165;0.0015033740180298632;142.0;0.1004822124083924;0.04067061194566531;0.0016594361934975288;142.0;0.10302017273670097;0.044191179345345034;0.001959171336010054;146.0;0.10958517153479415;0.03104123341165823;0.0009662024846495437;143.0;0.0938853741481129
0.008009831149811908;6.435538875332173e-05;145.0;0.0647306072318104;12.0;0.09820387878592925;0.009604022944959607;156.0;0.10579736534074126;0.023739433800722153;0.0005651499537405542;151.0;0.09345305588325632;0.023839163629434307;0.0005699422747059321;146.0;0.09154624108906327;0.02511682536220593;0.000632680940304215;148.0;0.09179712507496118;0.025846515526954456;0.0006701231514869919;154.0;0.09155781538930162;0.0261304431226936;0.000684934605474713;153.0;0.09125224399276614;0.022958276196455484;0.0005286301431992271;146.0;0.09443204188951243;0.023678298731993702;0.0005624886132000692;150.0;0.09220314833826555;0.023238337925265473;0.0005417205098702174;155.0;0.09245304510323729;0.024049822939735805;0.0005801656184144418;148.0;0.09278668167887652;0.025419206532400082;0.0006480596727784568;146.0;0.09582559091747352;0.02686124448343608;0.0007237282664316445;147.0;0.0981192460515318;0.02877281567302199;0.0008304527748888574;150.0;0.10347937113677658;0.03131696191699986;0.0009839489684175741;153.0;0.10878007328029529;0.022029534827074475;0.0004867915698561333;149.0;0.08788508506610304;0.03617861630578368;0.0013130018912137264;148.0;0.10597386152068454;0.03486789947774401;0.0012197060628012855;153.0;0.10418893993274951;0.033212104908846546;0.0011066082556806427;151.0;0.10191741208174133;0.03202345896123566;0.0010288361282351749;149.0;0.10203510242865685;0.03229691109323341;0.0010464747828297094;148.0;0.10209786262006922;0.03274887048422615;0.0010759298665588223;149.0;0.10271954604821823;0.03272215327780567;0.001074119187503711;151.0;0.10171372496089832;0.035011516625839;0.0012296124813407532;154.0;0.10407004210174273;0.027885944658147133;0.0007793983392409846;134.0;0.09429997597526407;0.02877639019480573;0.000830011736207558;133.0;0.09449525310210674;0.030034337814738736;0.0009040829331862655;128.0;0.0958353727641765;0.03130392488376392;0.0009819414431299278;127.0;0.0968047570103204;0.03213335693265713;0.00103489239845387;128.0;0.09709588646494478;0.03324787795832574;0.0011078911678090533;125.0;0.0984562690851303;0.03554102950952928;0.001266111392802451;135.0;0.10163790164841152;0.027425783250417828;0.0007540705285344085;132.0;0.09348478073433832
0.00746547563139182;5.591629221949911e-05;136.0;0.06383204646210411;12.0;1.2373927035192493;1.5358643809520034;140.0;0.3474328384892523;0.025424290675108964;0.0006484250595601276;153.0;0.0972928889839453;0.025841708717392033;0.0006699349769366537;159.0;0.09589852857769258;0.02737697005698005;0.0007518149981987501;149.0;0.09470172768388294;0.02818875122611926;0.0007970843818353141;151.0;0.09457561841867267;0.02781447266790653;0.0007760564396152383;149.0;0.09267568182289765;0.024393866163542163;0.00059694258686486;160.0;0.09782381420626503;0.02486552311474795;0.0006203131423927501;145.0;0.089649079737882;0.024555605031167365;0.0006049405256635788;152.0;0.0896799223829493;0.026043227225307233;0.0006804529768534617;156.0;0.09055686838912802;0.02719262386593682;0.0007418551490194333;155.0;0.09227676335508901;0.027014441833251277;0.0007321484252659506;152.0;0.0935930408590508;0.02782869732128781;0.0007766075949516746;156.0;0.09981151433809463;0.029200100141042212;0.0008546949278771635;154.0;0.10584540349806959;0.025041655917563937;0.0006290972481397299;154.0;0.08802507893942244;0.03438070430967651;0.0011847513994962759;158.0;0.10418671552522267;0.03288142748697445;0.0010832396738972177;161.0;0.10312966460280033;0.03148885875547827;0.0009934576509951266;161.0;0.10091414154388326;0.031418756699936295;0.0009890987626518864;158.0;0.10231978847483492;0.03323737085366269;0.001106420151266455;166.0;0.10400870412310785;0.034627312157920434;0.0012012469358077536;164.0;0.10479190502559926;0.034446727703535344;0.0011884153105043644;166.0;0.10422647189456936;0.03327743764179599;0.001109872456873559;155.0;0.10083148186334312;0.028931818257642395;0.0008387636467580442;158.0;0.0910600555908338;0.02931948499031601;0.0008613139488206744;157.0;0.09121579496316758;0.02996609077773444;0.0009001196810537324;154.0;0.09192876867975502;0.03215106484988986;0.0010362380472353988;150.0;0.0919487228325767;0.03294262068506865;0.0010878722702089862;150.0;0.09331887650718962;0.034380970327251216;0.0011850789746098488;148.0;0.09374641500417431;0.03710959517889188;0.0013802118828952885;158.0;0.09631621903587607;0.028837608396467693;0.0008334589180729111;155.0;0.08996477517749955
0.007558202145618597;5.7313984264626784e-05;148.0;0.06268254562688576;12.0;1.3068210754253673;1.7129810627583715;166.0;0.3661495977349;0.02202297325677939;0.0004866085437774297;153.0;0.08819527707369607;0.02289051272878708;0.0005257046083919415;162.0;0.08860510623917318;0.02447703479108768;0.0006011066920523813;154.0;0.08753959879674514;0.02532085354550189;0.0006432653694111709;157.0;0.08795672108684573;0.025484350143340544;0.0006516130840684004;154.0;0.08782729834527335;0.02063331555696481;0.00042706546835182257;156.0;0.0877391265004021;0.023831271817798406;0.0005693686608888786;134.0;0.08694229172962997;0.02372019195735297;0.0005644224070621522;142.0;0.08724690393930579;0.025151375469525707;0.0006346833572779782;148.0;0.08850334831928004;0.02589820958365618;0.0006729403444529202;152.0;0.08929417347116907;0.02633621774547028;0.0006958806227363738;150.0;0.09202819289753218;0.027552776948120968;0.000761545123571722;148.0;0.096402390687678;0.02765778686008236;0.0007668972047748615;141.0;0.10058343027945575;0.0248675032772741;0.0006203691494702586;155.0;0.08654991542753575;0.029368869913608302;0.0008647523775112206;159.0;0.10221055525276908;0.027659764685484402;0.0007666998160786606;158.0;0.1003515681203476;0.02627379987894039;0.0006917359907525991;156.0;0.0981776138680287;0.026222968881043574;0.0006889129636965292;157.0;0.09561761588165792;0.028429396388156256;0.0008087193561007847;168.0;0.09632526694717732;0.030319414620162927;0.0009196524435188436;162.0;0.09792532853230979;0.030677497537872623;0.0009414215567677861;162.0;0.0983938947369254;0.028805169078151716;0.0008318766024589503;153.0;0.09969107538333384;0.026902839462833276;0.0007242084982385733;158.0;0.0887775704596335;0.026840289008875022;0.0007206299203950012;156.0;0.08909417893521687;0.02690643047437312;0.0007243778455078137;159.0;0.08991646654353547;0.028889671651081784;0.0008352795122019941;159.0;0.0894514771172641;0.029613638872299744;0.0008774125706010936;162.0;0.09115471339562216;0.03125586751539716;0.000977424078356767;163.0;0.09301464065658338;0.033421924218175046;0.001117091402021462;173.0;0.09699243670880799;0.027236940047120288;0.0007419702167822229;157.0;0.08898559498366033
0.008552795909128288;7.3385118201351e-05;154.0;0.06447581239930691;12.0;0.44179260328848097;0.195628290561515;150.0;0.16988507270971284;0.02188549842269478;0.000480542034708925;159.0;0.08565321641711766;0.02263622366497668;0.0005140558334873604;161.0;0.08502652014537528;0.024297643395152342;0.0005921704941922187;155.0;0.08339080035565308;0.02570073952533532;0.0006624437960815079;156.0;0.08382506458877709;0.02644611065099449;0.0007015573704315293;151.0;0.08486523174057835;0.021278955679411304;0.0004542372418145739;157.0;0.0859605897061658;0.025988008375044433;0.0006773066479836316;136.0;0.08623436762025569;0.026528869391186243;0.0007058764425329909;141.0;0.0876357446243703;0.02799111257855644;0.0007857964294336342;145.0;0.08842510126003908;0.02880982749813919;0.0008323330148086952;149.0;0.08926700645953854;0.029703918284434826;0.0008843638657917544;144.0;0.0915649450576884;0.030759103583744025;0.0009477362526799376;140.0;0.09355484152912535;0.03241388507244829;0.0010519398451786994;146.0;0.09590209067651649;0.02597115158976277;0.0006764499965955343;142.0;0.08547790463071628;0.02400175111634979;0.0005779660982763365;157.0;0.096676206319112;0.022209115582505545;0.000494883170574043;159.0;0.09433339815086171;0.020739581235123383;0.0004315123972017438;154.0;0.09203764223560601;0.01939771046221588;0.00037748148326843497;152.0;0.08739135301995432;0.01973731440777709;0.00039082534809302703;154.0;0.08606281722965804;0.020922580138216164;0.00043918411966624546;146.0;0.08724153394440108;0.021307982560011773;0.0004554663652116698;147.0;0.08731456689194395;0.02320193476447579;0.0005400762158546875;154.0;0.09586239145353322;0.01922767048583623;0.00037092315383923605;154.0;0.08066430712861931;0.018930005504763744;0.00035951408866582345;151.0;0.08081225499807285;0.018906538866300792;0.0003584950275253475;155.0;0.0812242243835015;0.01994891858235396;0.0003990208683828185;162.0;0.08202659165858964;0.02033455870574216;0.00041447587326854426;167.0;0.08341073082738974;0.02140016683135701;0.00045900022026927747;164.0;0.08720225607209275;0.022961649446773275;0.0005283925504489765;170.0;0.09200780201516318;0.02032123754521824;0.00041427954393445264;151.0;0.08072544744359655
0.008432949064568538;7.130674185244335e-05;157.0;0.06730116087715515;12.0;0.16069521031684955;0.025665855216759164;148.0;0.1464376340782232;0.04890025792884378;0.002399079921967221;167.0;0.12150720794995958;0.046556544886496014;0.0021746197587772043;169.0;0.11862166220569904;0.044119076176709904;0.0019528545484239863;163.0;0.1152241672458897;0.043275517775379996;0.0018788725771589313;162.0;0.1137681933490826;0.042288426776057104;0.0017941392037210792;162.0;0.11286915905212383;0.0420138251526534;0.0017709262797548648;165.0;0.1180771625463519;0.04330631098654937;0.0018816357539250261;158.0;0.1134184550517715;0.04466253651024101;0.0020013082524034487;163.0;0.11380045466181883;0.04668931064594053;0.0021870742345384895;163.0;0.11428023273853198;0.04827694318703199;0.002338321507406;161.0;0.11560501290010373;0.04938025237703379;0.0024460600974443116;159.0;0.11751643360207958;0.05129032513743055;0.002637993639223722;159.0;0.12024460012093868;0.05730829355559714;0.0032903753923087253;169.0;0.12379381071458209;0.04189789818355586;0.0017612239088912287;152.0;0.11058628991724148;0.0336566199210318;0.0011362993417804552;153.0;0.10242592035326686;0.033528037072515435;0.0011276833972941596;162.0;0.10148418133693195;0.033735797832826;0.0011417477009780246;160.0;0.1001848744846352;0.03502261323850257;0.0012305286177934783;159.0;0.0995072767468083;0.036627459649904014;0.0013458348216237453;156.0;0.10014701559711366;0.0376687645028618;0.001423469509460531;156.0;0.10115911342525126;0.037444297568509324;0.00140650326165015;157.0;0.10132641126052541;0.03243813612562615;0.0010554235066302957;154.0;0.1017318886736313;0.03637999337461297;0.0013278035828650514;165.0;0.093887619966734;0.03596387274271641;0.001297504125372238;165.0;0.0930185141416311;0.036985959945729646;0.0013723163029075816;167.0;0.09360744301991271;0.039099088528275136;0.0015335329923070304;171.0;0.09442441152434389;0.039517216551000184;0.0015665117923551947;170.0;0.09604023030822284;0.04060336608220837;0.0016536185664063324;163.0;0.0986502642189177;0.04256115382291289;0.0018168410844908141;161.0;0.10294417404758123;0.038325959815821924;0.0014735556003558792;160.0;0.09448263333521985
0.007521123603530312;5.6745850807238375e-05;149.0;0.06494319301253058;12.0;0.09011745125484508;0.008094585390500134;176.0;0.14847390089637924;0.06216338747566558;0.0038768556304023803;157.0;0.14376089376014756;0.06073407209100008;0.0037006254747517695;151.0;0.14077054157862195;0.05854750706792386;0.0034389756178047643;152.0;0.13639257414748765;0.057511395660165894;0.00331837133261866;148.0;0.13405700293985315;0.055881884301914556;0.003132964447902697;154.0;0.13229831792705837;0.05139276601155571;0.002649664294528732;154.0;0.1365340529665956;0.05143115532066099;0.002653797346473359;160.0;0.12875427710895518;0.05302783466912361;0.002820997561034843;164.0;0.12894696581890014;0.05542192303107142;0.003081565339441807;161.0;0.12990596717398759;0.05727003063635735;0.003290485320385781;162.0;0.13175472396474341;0.057447681328577416;0.0033110183909045676;162.0;0.13449905560576836;0.05885136431799082;0.003474788100695124;159.0;0.13924958630775688;0.06407553421478364;0.0041188202571254785;162.0;0.14506930294888243;0.05123504515773227;0.002633494556249829;163.0;0.12668651734588623;0.03537571975396209;0.001255468533279798;144.0;0.1086101793641536;0.03550425654841468;0.0012645375197507006;151.0;0.10773165145743901;0.03619572689643389;0.0013142158227343248;149.0;0.10762500903057987;0.03815816504661003;0.0014606075645714638;152.0;0.10730469851210946;0.04010085714072077;0.0016131453858690293;149.0;0.10894733274359651;0.041472490528863454;0.0017252578076808586;151.0;0.10989182784050329;0.041414497561611675;0.0017204659600640073;157.0;0.11063396600903619;0.034301519042646555;0.0011802794252563427;144.0;0.10745744618670568;0.039038913760571;0.0015287102079343572;155.0;0.1033797290982312;0.038837138596706865;0.0015130144007475105;156.0;0.10244002475198008;0.040070645205200164;0.0016106437212888775;159.0;0.10372183709560802;0.042229008667632406;0.0017887580097057394;156.0;0.10501063776261357;0.04267827123438744;0.0018272376190397407;151.0;0.10607940281725875;0.04408378397124268;0.0019495356801785316;149.0;0.10860401679067469;0.04628589339728678;0.0021492923471205672;142.0;0.11466939278324706;0.040468514514585996;0.0016427828966904933;155.0;0.1036902383198469
0.008278552649176037;6.876015787081699e-05;158.0;0.06129104160388711;12.0;0.06371665483539339;0.004073075026465788;162.0;0.1330730456857224;0.04983591686848763;0.0024917439923492607;149.0;0.12980083848353516;0.04969265063588911;0.0024774409095088793;145.0;0.12740199545514025;0.04933811227380371;0.002442108338576437;148.0;0.12402296852422998;0.049468492270157274;0.0024551372616185914;150.0;0.12308379809139999;0.048476057465012684;0.0023575553646132297;148.0;0.12175903514474287;0.04205911204951684;0.0017745436619696112;146.0;0.12413914422916848;0.04152186825113304;0.001729700400761249;155.0;0.11504741998376926;0.043238120813136945;0.001875622066757472;155.0;0.11610976784595621;0.04611635391511013;0.0021334634406253634;155.0;0.11693417096744281;0.047791119842356164;0.002290958361903933;161.0;0.11814597982777318;0.04716883191415799;0.002230373643274412;158.0;0.12041627482876315;0.04775603830957813;0.0022852942536063523;156.0;0.12412603646026132;0.04947945933482099;0.002448309531123772;160.0;0.128239433565078;0.0414473405079226;0.001723488501785416;158.0;0.1138658153931887;0.03090171316371809;0.0009569118444367618;156.0;0.1077835582269847;0.03002126874475801;0.0009033924879766549;155.0;0.10604678624525929;0.02961980215789027;0.0008797169882436928;150.0;0.10470357423713776;0.02923447128023269;0.0008570402019134993;155.0;0.10166620984289369;0.029239950575724;0.0008573830876426684;153.0;0.1017548898674765;0.02948304256222381;0.0008717759502174075;148.0;0.1009560827221077;0.029656462418918235;0.00088196148697542;161.0;0.10166836139805434;0.03072543067241396;0.0009460109899601902;155.0;0.10739804331790163;0.027798654286917884;0.0007752154963149276;151.0;0.09941049542993972;0.027998416368528525;0.0007863492541458491;150.0;0.09980779632320748;0.028594224657819238;0.0008200771279311506;153.0;0.10063946806005492;0.02969706655684225;0.0008846381123073189;153.0;0.10164299401971223;0.029886227260479414;0.0008959162540622348;149.0;0.10136234374792594;0.03126955718235157;0.000980914504790858;155.0;0.10376283250650697;0.03353427320878119;0.0011282202445296434;148.0;0.10953055512512495;0.02740328249651086;0.0007532415155234632;153.0;0.0976911280481778
0.007933658715880825;6.31488710734995e-05;161.0;0.06122268798317657;12.0;0.7394961392688592;0.546129407248408;144.0;0.2631032577087573;0.03946727500231068;0.00156226269859664;144.0;0.11534852424304105;0.03713656917630801;0.0013823871248776578;151.0;0.11301444702351857;0.034477118260319385;0.0011917316747899376;155.0;0.10973610469324202;0.03422068231977549;0.001174097659593075;161.0;0.11037918118839625;0.03363031254404538;0.0011340509567897745;159.0;0.10926725805375032;0.03605029608207241;0.0013031737353242482;146.0;0.11161020704260789;0.033024150476996736;0.001093299041528587;157.0;0.1049185828391251;0.03435663386159384;0.001183182286683577;157.0;0.10574974253303031;0.03667330187982612;0.0013484422057165979;155.0;0.10676096650054627;0.037915348510018175;0.0014412903390035342;155.0;0.1069533515711257;0.0390779968707817;0.0015313347218245208;166.0;0.1099318342360818;0.04192196958911528;0.0017622828524294341;169.0;0.11541977059256332;0.0471613907061888;0.002229618542808309;174.0;0.12125343895723903;0.032059034178822235;0.0010303132588112911;159.0;0.10245666008193542;0.03263341209529666;0.001068341363060798;166.0;0.10805008387989766;0.03173587887606186;0.0010103206080400288;165.0;0.10656004741152561;0.03066031400213829;0.0009429555029521572;163.0;0.1046904749166072;0.028972196076644915;0.0008419860498792243;163.0;0.10165483264360835;0.02807168449686663;0.0007902975377483749;159.0;0.10000960346720557;0.02771291277442754;0.0007702191024597538;148.0;0.09929014860817012;0.027376262149268037;0.0007516160012673708;154.0;0.09795333986545221;0.03218834512122738;0.0010394075245308155;163.0;0.10625151559867452;0.028477776517634914;0.0008135948163093225;156.0;0.0962720237531873;0.0289267625558;0.0008394339726816146;158.0;0.09789314457471013;0.029349244582189283;0.0008640733498807136;164.0;0.09913879344083854;0.030271762914166597;0.0009193429721354909;168.0;0.10020373707800723;0.03050495968863598;0.0009335945141634875;160.0;0.09994509976062145;0.032002171131890196;0.0010274245391125737;165.0;0.10180218823369029;0.03413442114597967;0.0011686260658664719;163.0;0.1056687983910509;0.02749260281742262;0.0007582679786359008;157.0;0.09476510019652172
0.007176179506665414;5.161618758319555e-05;155.0;0.061413363142072984;12.0;0.8297173118906216;0.6903690598108149;154.0;0.28083828580160825;0.03710597705962113;0.001380550972181791;150.0;0.11562552575991696;0.035122899278222354;0.0012369929425959764;153.0;0.11324032234537015;0.032502682540115645;0.0010595384976004778;149.0;0.11000726944256695;0.03164044748960537;0.0010043101483254004;154.0;0.10963177243655016;0.031311760963133324;0.0009835771603621288;155.0;0.10953623421088654;0.03273297849930791;0.001074269547017363;149.0;0.10958767844742838;0.03050360487410073;0.0009330928538994422;157.0;0.10716420731641113;0.030161085006035895;0.0009121919836617337;152.0;0.10705440903329944;0.030385724407552883;0.0009255716603704103;149.0;0.10734362801845616;0.030421535822005644;0.0009278418656034863;147.0;0.10669802303456832;0.031358055328176246;0.0009855821557287682;154.0;0.1074296147064088;0.034027345663707076;0.0011608641785807083;158.0;0.11174338631866529;0.04004327843827515;0.0016079354360152996;161.0;0.11714234246906005;0.031468973742518384;0.000993213365891989;151.0;0.10509923776384363;0.030127444333587616;0.0009106456841284894;155.0;0.1069910528196003;0.0291867939065117;0.0008546656666575098;155.0;0.10534140285266272;0.028333367180261363;0.0008054109266673073;156.0;0.10343946639972995;0.027060286246428335;0.0007346718633485274;155.0;0.10156783758066187;0.02649713843308998;0.0007043840757746392;153.0;0.10019081349298185;0.027077912095710765;0.0007356193795811449;148.0;0.10119599290531751;0.02667038520669701;0.0007136343294927176;146.0;0.09983763543037172;0.028711316449696177;0.0008270457445388804;151.0;0.10416896935547036;0.025474183336097918;0.0006510282806666428;145.0;0.09222956707210818;0.025758750362858844;0.000665661263647993;153.0;0.09317706271770207;0.02605432032336877;0.0006810579557173324;154.0;0.0946594798887884;0.026841435908947334;0.0007228201615580702;161.0;0.09611326848102157;0.02723788947035885;0.0007443401451261725;155.0;0.09614947133596333;0.028880069139498202;0.0008367057710766733;158.0;0.09859985794666111;0.031078846283420416;0.0009685081665628081;164.0;0.10332292755825004;0.025005192976554815;0.0006273099832748066;150.0;0.09193912038759551
0.008609764595800819;7.437007938245205e-05;164.0;0.06599566841123251;12.0;0.40697413310517916;0.16416848360480493;172.0;0.15734248499557812;0.030283075150222032;0.0009200434646013109;152.0;0.10893495091884202;0.029428932300792295;0.0008688251145474748;147.0;0.10775646283314956;0.028101063819955408;0.0007920804496941588;142.0;0.1063786472933206;0.027090805360622867;0.0007359100493697084;143.0;0.1042334340994599;0.027160365731498888;0.0007398210916702118;142.0;0.10417744317930543;0.026602820934685;0.0007099845546925107;142.0;0.10644303985015552;0.026774585106931526;0.0007191023999724034;154.0;0.10235495106572301;0.026582009823359416;0.0007086163481384856;152.0;0.10323435105936565;0.02766704665054247;0.0007673501122613222;151.0;0.10423897061514953;0.028352008378308487;0.000805729613922725;151.0;0.10514407036013347;0.02946249261916265;0.0008699831361479554;147.0;0.10583195114432865;0.031238329713399893;0.0009779378939337832;148.0;0.10871922565621714;0.03535959430057987;0.0012537417327573813;145.0;0.11459584927112997;0.0265153499889821;0.0007053688007722522;145.0;0.10104229169622521;0.029206424656726935;0.0008557519960836073;147.0;0.11038429773957759;0.027788531812439277;0.0007746872736939167;148.0;0.1081718633520106;0.0269922367793613;0.0007308660109761787;149.0;0.10636780472690917;0.025446193485939513;0.0006494205228138316;153.0;0.10361179305893933;0.02525007093075333;0.000639473964333749;152.0;0.10281781295747759;0.025994950104848043;0.0006777978114139091;155.0;0.1040623129082885;0.026287991924868196;0.0006932052228483513;154.0;0.10441760799589725;0.028213430544144463;0.0007984391919681075;150.0;0.1091857442861432;0.023128722991829786;0.0005363185480311747;146.0;0.09513665816190442;0.023047286776587593;0.0005327182244946135;154.0;0.0956408005430927;0.023509928469195394;0.0005542984170849815;149.0;0.09668981199839817;0.024421064722609832;0.0005978972211668895;156.0;0.0977772994797721;0.024848804789576948;0.0006191271805397259;155.0;0.09815104358735247;0.025945176647027914;0.0006749078781620255;155.0;0.10052280140076665;0.028044748324790633;0.0007884371304247316;154.0;0.10582517514117268;0.02280357549232256;0.0005212362707952464;152.0;0.0936154570809925
0.008508234973146657;7.26131885103291e-05;167.0;0.06652908649200953;12.0;0.16190475200193985;0.026105010450416667;170.0;0.11910752635365873;0.028401880608866194;0.000809170877506718;153.0;0.09922110384967267;0.028618879378673866;0.0008216595608227299;147.0;0.09866271204530253;0.029661788106203183;0.0008826967280715776;144.0;0.09857805216686269;0.029887408716243125;0.0008961732000238045;141.0;0.09713256459915237;0.029613391568715168;0.0008798081462573892;142.0;0.09688044469469671;0.02801427507604291;0.0007873654202528417;138.0;0.10180160041088658;0.02817637401503314;0.0007964666225133162;149.0;0.09472423676071311;0.029409045723617137;0.0008675503904960111;156.0;0.09549429876516699;0.031743707946278295;0.001010657047874205;157.0;0.09725838295781587;0.03342818023536661;0.001120530068645381;153.0;0.09948105762665756;0.03522167202320144;0.001243977896468747;153.0;0.10306086601864962;0.03716444733041765;0.0013846191508976153;152.0;0.10859854495760565;0.04145205022996197;0.001722821207929582;144.0;0.11693973200881964;0.02755485962342115;0.0007616227177127547;152.0;0.09427960317417941;0.028442017568782427;0.0008111738110390646;153.0;0.11299187593988992;0.027583390308324754;0.0007629423949470445;158.0;0.11145191059767161;0.02703429702955286;0.0007328256741457342;156.0;0.10935672382025066;0.0260248831113191;0.0006792079801892948;161.0;0.10531221608552192;0.02628622295119534;0.0006928554081937458;151.0;0.1040223681461522;0.026377263179109364;0.0006976627835815534;150.0;0.10423927386840201;0.026592111377117023;0.0007090157705135176;150.0;0.10409802731861648;0.02872207120865975;0.0008274517233816866;158.0;0.11214684636008518;0.024963087796513107;0.0006250531134467025;146.0;0.09688529634623294;0.024971330214735243;0.0006254043108400644;146.0;0.09737385243815808;0.026329989775577062;0.0006954418833139798;149.0;0.09922661841914777;0.028008182754367512;0.0007869203307072467;152.0;0.10089814419219405;0.028869364090053057;0.0008360109829107332;148.0;0.10241475590100635;0.02982486599805926;0.0008921416061604988;144.0;0.10465802329869547;0.031638771628019945;0.001003625021356227;142.0;0.10878232169001226;0.02417681386144727;0.0005861748899960447;141.0;0.0941298820500957
0.007793599227978188;6.0929489617193765e-05;161.0;0.06246435960190778;12.0;0.06531685414438662;0.0042442608321480385;168.0;0.10120329709149903;0.02908319299693439;0.0008474460947175966;154.0;0.09407431918637327;0.029603717046827627;0.0008779525254152481;158.0;0.09269024787767993;0.031079110113327944;0.0009673869056341272;157.0;0.09296935318731059;0.03169573994850207;0.0010061808717963157;156.0;0.09197996734873558;0.031160674777762732;0.0009720146466064835;156.0;0.09155535672953037;0.026971888870692042;0.0007292776631725683;154.0;0.09325856108046726;0.02850973120649263;0.0008152709166271327;156.0;0.09152493134011504;0.02915198919195523;0.0008524861014775625;162.0;0.09132556061024527;0.03090183868627715;0.0009579118482777011;163.0;0.09188091174472299;0.03181287110545317;0.0010151258271201482;163.0;0.09297240631854785;0.03241441864144026;0.0010539371697080861;159.0;0.0956406744410869;0.03383400253700814;0.0011483305617861596;161.0;0.09984094299107593;0.03649506299973178;0.0013362395531252304;163.0;0.10527781997753725;0.02806422130357014;0.0007901815366523532;163.0;0.08987461957537081;0.028984791131318157;0.0008427165399187717;157.0;0.11337114682723194;0.02783146359317211;0.0007768174532725517;151.0;0.11159785488957093;0.027332087119425523;0.0007491229649467843;147.0;0.10864909877335685;0.02644047353317039;0.000700710363521853;146.0;0.10475738609745856;0.02652165011538966;0.0007049460849755336;145.0;0.10398309876863411;0.026420938572292885;0.000699735748679932;146.0;0.10450110066948795;0.026207039826084775;0.0006884346144994548;147.0;0.10341856828304706;0.028868850063967538;0.0008359949570625;157.0;0.11139860815882327;0.02623435672688205;0.0006897282342901334;137.0;0.09913638455284035;0.02632925766027351;0.0006948203688104728;136.0;0.09951723880370154;0.027636010334866606;0.0007657462571417483;137.0;0.10100349603632561;0.02933526447415451;0.0008629391392752922;145.0;0.10205535647484938;0.03037262820058759;0.000925125951660656;139.0;0.1030322525726444;0.03156286488039479;0.0009992275714020232;140.0;0.10517358621532655;0.0332449694553184;0.0011086510744279228;146.0;0.10737021569481607;0.024927833409108303;0.0006223723799746116;130.0;0.0973171634155312
0.008313126960556541;6.933319682602433e-05;161.0;0.06659925457151623;12.0;0.04179333271826541;0.0017479975746048032;153.0;0.10059777956810434;0.03160407205628067;0.0010020778583154594;152.0;0.097102638493801;0.0308658191304054;0.0009558154507249693;158.0;0.0946995429131268;0.03008706588000165;0.0009081756390166781;162.0;0.09191190397433932;0.0296609471500732;0.0008826322295335214;163.0;0.0887722915145545;0.029479344472981495;0.0008717761338617984;156.0;0.08845262429761962;0.02668110705966844;0.000714137076410148;156.0;0.09293554775745501;0.02796577750043021;0.0007843818402489736;158.0;0.08832693083166565;0.028320748298752207;0.0008043038919205096;156.0;0.08890606629042043;0.030942866901557165;0.0009598623188318198;151.0;0.0900233548345831;0.031871459300977505;0.0010183594130715506;155.0;0.09164420543365905;0.03299138192848674;0.001091212747707941;154.0;0.09442875161378872;0.035613718383948736;0.0012717999787559384;157.0;0.10085764455772055;0.03894961976973074;0.001521391187284437;163.0;0.10634081235771663;0.02617312044187169;0.0006869351988245237;161.0;0.08509649258719236;0.029569561752296362;0.0008757845179253948;156.0;0.10867660749687834;0.027384957033356038;0.0007511616608977034;153.0;0.10620737498902298;0.02655885225541541;0.0007065356802862751;151.0;0.10538363051064761;0.02469847404209059;0.0006109373741305704;153.0;0.10252476974462338;0.024171720497109056;0.0005855001664187716;158.0;0.10204532444529281;0.02430613264320093;0.0005918907180220032;162.0;0.1028304557196434;0.02392504898821389;0.0005736330843106871;160.0;0.10186216622397574;0.029179180743648718;0.0008525001708466963;157.0;0.10684387959586102;0.02462126654093329;0.0006070227412126051;158.0;0.09916020635937768;0.024671652447493718;0.0006092160269050987;158.0;0.0994044011430744;0.025452028055811118;0.0006486453587787227;157.0;0.10030830885119106;0.026359034205795953;0.0006958906511062734;162.0;0.10149177889008477;0.02669264091871032;0.000713760834485225;161.0;0.10168559068568421;0.027476910340516268;0.0007563120417986319;158.0;0.10341975716057636;0.02874570368137036;0.0008276297669545144;162.0;0.10665574753294149;0.023604881991751682;0.0005579060900751195;155.0;0.09783956507898658
0.0087862905847635;7.745065763064964e-05;159.0;0.06722425471283001;12.0;0.037243830186869976;0.00138287789586845;148.0;0.10257867044658228;0.0339963726356632;0.001155505825378748;156.0;0.0993838336123133;0.03334500567831936;0.0011115282474180356;153.0;0.09736999841228272;0.03330630817850636;0.0011094511305630612;151.0;0.09381913827576362;0.03340375364499103;0.0011157268035119924;146.0;0.09109616144760749;0.033166604900094675;0.0011002045987778624;144.0;0.09144994262431119;0.02957560504567905;0.000874911128370878;159.0;0.09482384354718465;0.030588737236314275;0.0009340723103757601;152.0;0.08961638642535773;0.03093077325720695;0.0009551091266307028;150.0;0.09133677416146967;0.03315357947586038;0.001096491156440233;143.0;0.09315388746018405;0.03405008894582158;0.0011567213857553117;148.0;0.09478735345569775;0.03551049237171136;0.0012589446211698687;155.0;0.09958879286251456;0.03850132235920573;0.001482031525904167;158.0;0.1070365592800316;0.04252146635691566;0.0018097828092834306;160.0;0.1144641238659864;0.028147610249151543;0.0007925399643682503;146.0;0.08509720222103068;0.02756162189039833;0.0007604912554097449;154.0;0.09833303081086997;0.025829326036811758;0.0006674717793514872;158.0;0.09693067253409267;0.025465591786898497;0.0006487160491222554;163.0;0.09771927322480617;0.024828390362831753;0.0006165018447142726;171.0;0.09593059209788687;0.024978243853880356;0.0006241535650969779;170.0;0.09646611019517379;0.025536621186855128;0.0006526011853840804;170.0;0.09699658756450319;0.025054934431921475;0.000628094058155968;168.0;0.09646373359502032;0.027574236762461003;0.0007606335592082867;159.0;0.09702108844132423;0.02395099547524085;0.0005734938414683363;176.0;0.09310786433220868;0.023703835809056606;0.0005616710962120625;179.0;0.09262218526179457;0.02473834773439937;0.0006118219072070644;181.0;0.09392340849489944;0.025872778333737266;0.0006692961304740242;176.0;0.09547578162060544;0.026370306626138363;0.0006952555470509477;182.0;0.09657681189857378;0.02707417570223937;0.0007326791596598306;178.0;0.09790584044777309;0.028700730310363704;0.0008229421949429734;179.0;0.10166230971505823;0.025076796927688074;0.0006290076380849244;173.0;0.0928710773363803
0.008625569563417328;7.464179013472993e-05;157.0;0.06524514995677443;12.0;0.03621916715596271;0.0013131806339805054;173.0;0.10390732882819181;0.03179212541663983;0.0010139909885925895;166.0;0.10115442069808023;0.031400561635265216;0.0009892149003567388;162.0;0.10003966118289301;0.03102684113540895;0.0009658137424309666;157.0;0.0972509537428518;0.030935879097107894;0.0009601453158968458;155.0;0.09478445821827529;0.03014142345067641;0.0009114816981035115;155.0;0.09363541388026955;0.02765598480072808;0.0007672309031042131;166.0;0.09614136794222704;0.026910035605861908;0.0007263731047596714;161.0;0.09108750245829238;0.027043161456592132;0.0007336475356524823;159.0;0.09137755066125602;0.02797293065085662;0.0007850475478736815;150.0;0.09286111038574126;0.028354075570823374;0.0008065808442504027;156.0;0.0936976263758636;0.029462426508472712;0.0008708847096463004;162.0;0.09865392804043913;0.03166673409666952;0.0010060247557585032;160.0;0.103688791071539;0.03486261401753669;0.0012194169066834487;162.0;0.10959688561511309;0.026194414750406986;0.0006882657790262133;155.0;0.08613937268906686;0.03595310178775555;0.0012965146324215029;151.0;0.11337230826360331;0.03549237296041587;0.001263693201029349;151.0;0.112688281289938;0.03464471466119269;0.001204078919658915;156.0;0.11080106185980268;0.03265164453265006;0.0010691542279073713;165.0;0.1065466406430595;0.03269227503792335;0.0010719044107437995;165.0;0.10679908444471822;0.033171001309319825;0.0011034887174330263;164.0;0.10659923353634583;0.03266455015181148;0.0010701377981743561;167.0;0.105325784055087;0.03548166590854805;0.0012622834907797791;152.0;0.11033970343077358;0.031430574350475596;0.0009907459031815412;169.0;0.1006466168752609;0.03154309901645026;0.0009977087233626139;174.0;0.100802569586095;0.03277366381953053;0.0010768706039536533;174.0;0.10177368801101508;0.0346600496476238;0.0012041136948444159;170.0;0.10316276757248072;0.03535462372854704;0.0012532315344971432;173.0;0.10410311926009304;0.036494431668086254;0.0013354669711462314;173.0;0.10630848051393632;0.03844665940514638;0.0014820851184697151;170.0;0.11059653531773672;0.03254559140909908;0.001062241718719596;172.0;0.10132515048395505
0.008467796436323609;7.18928498858687e-05;154.0;0.0660018843398169;12.0;0.03082819997025304;0.0009519705319201823;174.0;0.1016286817922477;0.025586605476714954;0.0006562541056398158;163.0;0.0998049525858295;0.02476053308917322;0.0006145773782299311;165.0;0.0991792462279281;0.023211628802166314;0.0005398715411154018;160.0;0.09611051900299171;0.022432539281204766;0.0005040748073036371;165.0;0.09310747337493415;0.02175057670073973;0.000473616419834943;159.0;0.09123650778406395;0.023606142163364523;0.0005586848535358326;165.0;0.09796953326671934;0.02050413723541117;0.000421055846808499;154.0;0.08978358688414789;0.020571412915865225;0.00042364840615993044;156.0;0.08959187707914633;0.021946833599585238;0.0004819617931310395;153.0;0.09116315949271978;0.022776662801551304;0.0005190437356558511;154.0;0.09280719162206257;0.024427585286585955;0.0005975112016377051;156.0;0.09634219382975666;0.025717071386959264;0.0006625132883482472;147.0;0.09991473787814484;0.028883274405740438;0.0008365737724530674;151.0;0.10464277421943899;0.021426638993733402;0.00045995890943160587;159.0;0.08768954365962628;0.04735352534909597;0.002247503771073928;153.0;0.12956696933788264;0.047583776213940776;0.0022697902012274425;156.0;0.12986347496343167;0.0474220226530189;0.0022544429717018966;156.0;0.1282266839852621;0.0450364747692838;0.002033741462300675;158.0;0.12318408563333931;0.04394555559441641;0.0019370400598551914;160.0;0.12164265960154728;0.043514501617879967;0.0018992252247855528;163.0;0.12053219931131343;0.04284221762164811;0.0018407845630120485;164.0;0.12000168921264928;0.04689373577683209;0.0022032363397873345;148.0;0.12757695494190285;0.041070114253329335;0.0016911593924156224;160.0;0.11684734402662343;0.04106959458053514;0.0016907565433876377;157.0;0.11727247266724614;0.041554360449176694;0.001731151624168978;157.0;0.11755004819424449;0.042501375035655466;0.0018107803486039937;158.0;0.11833604472255242;0.0426278419649593;0.0018216170834729462;156.0;0.11873121186952852;0.043761147292091865;0.001919491814893648;155.0;0.12091137824725559;0.045867304034089396;0.002108214570095465;151.0;0.125564659901655;0.041292391218962686;0.0017098514152804746;164.0;0.11626746046704811
0.00839466110659865;7.069946902783806e-05;151.0;0.06370023016528487;12.0;0.02192348627576175;0.0004800456420882328;158.0;0.09384103426594781;0.021381845714323736;0.0004582872496284349;155.0;0.09300823103595247;0.020907477889077698;0.0004382167653872345;157.0;0.09222009683328715;0.02087522274142575;0.0004367445120282902;155.0;0.09078382630646557;0.020991356887443302;0.0004414301147944374;146.0;0.0897786862582503;0.020826600914266004;0.000434410732474213;141.0;0.08772603862010989;0.02168886374409465;0.0004718301560827524;164.0;0.09432694979191823;0.020039078741286707;0.0004014185934522431;144.0;0.08601495311618096;0.019891621951719923;0.00039604620480258526;143.0;0.08653108184874012;0.02211679064831224;0.0004897462912783071;143.0;0.08882553121813948;0.023791201809357898;0.0005669865223353755;146.0;0.09121407779353032;0.02606696153930071;0.000680899318861957;150.0;0.0954825394650374;0.0278354073078638;0.0007766630883527356;147.0;0.09977370037834583;0.030847776590558783;0.0009539530973135947;154.0;0.10641394640625235;0.01949521450292311;0.00037981359189609464;150.0;0.08402284477558596;0.05272788823373364;0.0027860968071296427;150.0;0.13694357350282835;0.053753011283455464;0.002896067070911664;157.0;0.1379900805775618;0.054032319271128344;0.0029255569326628182;150.0;0.1376950206307759;0.0508723870735421;0.0025930344688649774;145.0;0.13337920025000521;0.04990566912860003;0.0024952694800952397;143.0;0.1323338819767317;0.04972052605520372;0.00247650108438651;149.0;0.1319508236937129;0.04890107887453547;0.002394670661830701;148.0;0.13187383999868071;0.052991273506664986;0.002813629077511367;152.0;0.13517896113020098;0.045067201935303;0.0020318968352732066;154.0;0.12406078020591464;0.044695348804285946;0.0019974543137971034;149.0;0.12379926675401842;0.044763957652923916;0.002004634971578709;148.0;0.12334182735035368;0.045846565128183914;0.0021017670456265226;144.0;0.12431551174643393;0.04659080938191628;0.002170262267049262;142.0;0.124782937919872;0.04845539006043666;0.0023479665311483527;137.0;0.1270064201215401;0.051214484197988505;0.002623385434856339;136.0;0.13092120708160088;0.0444446649893102;0.0019762146782561084;152.0;0.12226094921099895
0.008426395573187096;7.123538707205581e-05;154.0;0.06516706930438124;12.0;0.02462542402083061;0.0006083938190019014;149.0;0.09640532263971778;0.023902816777977128;0.0005732139027416196;153.0;0.09595300463416441;0.022930657171297258;0.0005275316982036594;146.0;0.09391373592814851;0.02313912909197883;0.000537157309854998;154.0;0.09301159796067959;0.023129326230110575;0.0005367081856937948;146.0;0.09265120953863933;0.02289014670525405;0.0005256711568588615;142.0;0.09051310796429102;0.022097839111696525;0.0004899092365090827;149.0;0.09423552859374681;0.022815852955657478;0.0005222595968005487;148.0;0.08804498548405416;0.02260555384940468;0.0005126709474129741;148.0;0.08894506471238359;0.024441646920926912;0.0005992887857897475;145.0;0.09056724032964023;0.026472524838901657;0.0007030798057119883;153.0;0.09232176176620013;0.028599254607694753;0.0008205601472192892;154.0;0.096444386147587;0.030420944303346586;0.0009284697297114628;158.0;0.10249391516957047;0.03143579553935973;0.000991428667653159;155.0;0.10899999023705702;0.022211052368435253;0.0004949153748762836;157.0;0.08531135632147056;0.05656595284931019;0.0032094354535240313;151.0;0.14677958763457516;0.05828428276025274;0.003407377598605176;151.0;0.14767686329962845;0.05825312536682432;0.0034035019956148937;147.0;0.14585360771151365;0.055068127224813454;0.003041569059121966;147.0;0.14014185947019892;0.05546575842033278;0.0030859046352236913;141.0;0.13838920456721765;0.05620058852785772;0.0031683467694793277;143.0;0.13870209753056056;0.05538014280819102;0.003076678652911219;140.0;0.13839825388672342;0.056807179464798074;0.003235971638173959;153.0;0.14192525420480506;0.04959836393425209;0.002467204721056789;162.0;0.1253001332790677;0.049725249094895105;0.002479868244408068;157.0;0.12494998652854619;0.05052783456267299;0.002560761224522545;157.0;0.12496826585290748;0.0526786372387411;0.0027835166735239027;150.0;0.12627046616449655;0.05433599471691804;0.0029614634561842077;146.0;0.12716689092140995;0.056502583202461217;0.0032019772901135334;139.0;0.129100762733744;0.05953024705513646;0.003553777418329107;144.0;0.13263514599361373;0.04855766951055955;0.0023650585509297035;158.0;0.12355261002299577
0.008865439571547794;7.884229619141328e-05;155.0;0.067689631518033;12.0;0.024629946407883737;0.000608617581304987;148.0;0.09749084462351403;0.024432445757326147;0.0005989002902053177;151.0;0.09735041741363158;0.023874875823764033;0.0005718351187279064;142.0;0.09565265587347278;0.02427583059911818;0.0005910171867782252;145.0;0.09557766870340383;0.02435915123905338;0.0005950432701986533;148.0;0.09580786695522112;0.02381380259931569;0.0005685755121464374;146.0;0.09440891833831924;0.02245339698371968;0.0005058210233431751;140.0;0.09605983399662926;0.024553713320886378;0.0006039043125047344;152.0;0.09420986953149497;0.024237331578774543;0.0005886956385293976;151.0;0.09531925885967715;0.025228421358605584;0.0006377925354232653;155.0;0.09624485737332729;0.026192357862000533;0.000687305042301905;159.0;0.09692108935048059;0.026906585634930126;0.0007254482086007558;161.0;0.0984028155779806;0.027811990960019572;0.0007750677655367535;165.0;0.10252179213413433;0.02830313304234147;0.000802954978811874;161.0;0.10717778489107896;0.0246495919955044;0.0006082147263686183;158.0;0.0929069974144697;0.05928830124382398;0.0035250622781218843;144.0;0.1526563420287271;0.05956580678399804;0.0035587025274975894;146.0;0.15295726047513805;0.05793237118586064;0.003365487983702225;149.0;0.1497025468097538;0.05407260160838053;0.0029304918583213037;152.0;0.14249024812497613;0.053383468525104824;0.002855679650935773;149.0;0.13819397277910384;0.05396396600651549;0.0029162939748574525;151.0;0.13719063102142298;0.05362057551767422;0.002880009371419476;147.0;0.13684320394480415;0.0583419792509286;0.003412862164909241;142.0;0.14743606251482302;0.04940127945340136;0.0024427717726631477;153.0;0.12764236798199544;0.050751654219135765;0.002578922300717745;149.0;0.1283274127941065;0.05300518421069089;0.002812992826852793;149.0;0.12931460453482455;0.0562307047448059;0.00316576517756604;149.0;0.1305610054661189;0.0580617095271626;0.003375412118140746;148.0;0.13171962120386285;0.06058632875477771;0.003675684517123767;146.0;0.13412566657756872;0.06499986506470987;0.004230884797388352;153.0;0.13941280756612626;0.0481227948240305;0.0023187990244421105;155.0;0.12595079625907482
0.008312069895455885;6.931470403033369e-05;155.0;0.06529398537425375;12.0;0.023378950218906083;0.0005483235579649776;144.0;0.0943911983095572;0.023644025389877917;0.0005606836375254945;144.0;0.09393381682705546;0.023383043816121725;0.0005483247055030918;145.0;0.09202933335513609;0.023543401214001603;0.0005556220200429854;142.0;0.09101411581161387;0.023759569285115016;0.0005656809854393631;139.0;0.09183229763722943;0.023764096232591445;0.0005658607859682417;136.0;0.0915942234261064;0.021955228589174727;0.0004835450065136693;138.0;0.09391920590244719;0.024210482389032697;0.0005880482828652048;149.0;0.09298610187684216;0.024555993274352837;0.0006049612300650206;140.0;0.09291685017029996;0.02584481669240655;0.0006701325327041546;144.0;0.09344740145129656;0.026263837399485058;0.0006920325176403409;145.0;0.09347618705631684;0.025656978663724135;0.0006604323032516616;145.0;0.0935821645493932;0.02523281801850276;0.0006387630868468894;145.0;0.09654150744905549;0.02519685397256586;0.0006369566929919371;148.0;0.0991460789304305;0.023925918368109613;0.0005743022572666348;146.0;0.09283347508384063;0.06530176356740656;0.004277346401276439;137.0;0.15285773839417344;0.06617972208759791;0.004392964031215348;140.0;0.15310599484243495;0.06345159268612592;0.004037620144108192;138.0;0.1493059474914776;0.05740848278971691;0.0033049271054562787;140.0;0.14240260534561863;0.05422246269760711;0.0029475643578685856;145.0;0.139148103983354;0.053712472664110944;0.0028934956839903716;151.0;0.13798113207600857;0.053419660847480004;0.0028617474361326807;151.0;0.1371963122381675;0.060687470648177325;0.003692946159454345;141.0;0.14755717036937538;0.050985551396207265;0.00260706654228184;138.0;0.13243193733482872;0.05209215937510878;0.002721412559201918;136.0;0.13312732669600108;0.054015729903066016;0.0029262836003201443;135.0;0.13395201777720306;0.05649229535506165;0.0032006686463697275;136.0;0.1343504823707758;0.05763903599303696;0.0033321854504777732;140.0;0.13489065138202055;0.060001946170029165;0.003611070712842305;137.0;0.13738482513054212;0.06453166575763307;0.0041768349402320215;142.0;0.14225078663555207;0.04954564512882247;0.002461890768861137;140.0;0.12979111156171505
0.007276042123165731;5.3110701885486965e-05;154.0;0.06308901473222822;12.0;0.024906751202196677;0.0006217326999645727;145.0;0.0922807931888111;0.024581418553067984;0.000605526447472068;147.0;0.09079689100776187;0.023861993191579764;0.000570811372606266;154.0;0.0879654382374815;0.0238144323246241;0.0005685849489511235;156.0;0.08585429348059913;0.02439332951003014;0.0005966536102479403;153.0;0.08638696056804152;0.02511088831291736;0.0006323991944916534;151.0;0.08732015155411081;0.023074214758889575;0.0005335835450978194;139.0;0.08852373616916627;0.02378202749604228;0.0005670876274093594;139.0;0.0872454631278908;0.024984717445404644;0.0006261918738430446;140.0;0.08761956485545706;0.026999291669980555;0.0007312967844151717;141.0;0.08888411932045165;0.027796251442453693;0.000775116865141;141.0;0.08998144036459566;0.028255828325782207;0.0008008940017688451;140.0;0.09201875915706031;0.028544292088670428;0.0008168880214995225;138.0;0.09652084767473948;0.03034344409858271;0.0009226478875469175;137.0;0.10197832658972497;0.02386414165014539;0.0005713100553806097;143.0;0.0872716481320978;0.07020347412344204;0.004943682817938528;134.0;0.1556912864046626;0.07293746862760615;0.005336452999547357;137.0;0.15754029362016675;0.07041023062758925;0.004972792325925884;136.0;0.15391588735499134;0.06229397531301477;0.0038923939641460807;138.0;0.1450045492291849;0.05755497940761569;0.003321639658821042;143.0;0.13986109179566786;0.056307016261421566;0.0031791579183997453;151.0;0.1383704451838959;0.055402503491670974;0.0030778090155502763;151.0;0.1365658992196534;0.06229404107973846;0.0038926471908152147;144.0;0.14741983852243368;0.051041029687703375;0.0026126047333924767;145.0;0.1334071829063068;0.05136295735917136;0.002645602351049666;142.0;0.13404246646081064;0.052053495704669044;0.0027175566562789607;142.0;0.13429224846951102;0.05325664919080117;0.002844688064572679;141.0;0.13433257515750943;0.05385349498214928;0.002908752907712316;144.0;0.1341369758827793;0.05542064287256775;0.003081065783933129;143.0;0.13543399391407798;0.05897760988526678;0.0034892093345084427;144.0;0.13844700526614445;0.05008069095004779;0.0025153580430539533;144.0;0.13108004287233005
0.007366854081188004;5.444617022376462e-05;156.0;0.06406839170225587;12.0;0.024323004018630186;0.0005933667663758916;150.0;0.09239769557543163;0.024301144919681834;0.0005920937270615676;159.0;0.09143022779494107;0.024444034125714224;0.0005989973354198422;164.0;0.09020240575352546;0.025346809861460075;0.0006439674663737602;165.0;0.08969757977874;0.026365540603818172;0.0006968583522301221;164.0;0.08986448908448112;0.02685295658204508;0.0007226601348145458;164.0;0.08983245960131052;0.023806937425246203;0.000568512643817257;152.0;0.0903251169786214;0.024660880088037206;0.0006101414677332944;144.0;0.0869724775857456;0.02496849597176132;0.0006254486332712279;149.0;0.08841798216180174;0.025874672089422297;0.0006716334287843376;153.0;0.08932188212824958;0.02618598287890035;0.000687738466302434;154.0;0.09061326613446505;0.02742530383696114;0.000754424141329731;159.0;0.09381451953572024;0.02959246941385674;0.0008783967815438914;158.0;0.09894242549641591;0.03285470427043651;0.0010828807731777686;156.0;0.10483148424924328;0.02498921012395565;0.0006263664954095571;145.0;0.08679345230918234;0.06614419073808848;0.004388578045956623;147.0;0.15452324973641599;0.06765740325169733;0.004591780066251826;154.0;0.15742275445015683;0.06522747515420442;0.004267716746035769;158.0;0.15490643254307873;0.057887156765940875;0.0033612702995724076;150.0;0.14563705299924043;0.05481930891957875;0.003014536619781041;150.0;0.13898941288532185;0.05465992599299922;0.002996959663608777;153.0;0.13758667679552156;0.053912339516025365;0.0029153602985517906;153.0;0.1363829678392991;0.061142577111931745;0.0037496720010746602;149.0;0.1467505877272016;0.046329879729995346;0.002152922540669153;154.0;0.12904972883577853;0.046859968074493275;0.0022028142378639304;153.0;0.13013123799949575;0.04766621311635793;0.0022790913012739555;158.0;0.13083643918932036;0.049236869507529264;0.0024319981482403565;155.0;0.13168070537772697;0.05004245642800613;0.0025122174631174517;156.0;0.1320621424309122;0.051491384122564175;0.002659796088877769;157.0;0.13323708607620588;0.05490825097825091;0.0030246616483556;154.0;0.13676193863521297;0.04600533913217471;0.002122948601014653;150.0;0.12769549627621557
0.008192876961866744;6.734067730428541e-05;156.0;0.06734993246045894;12.0;0.02359739546221686;0.000556906280370027;160.0;0.08671473365836534;0.024121620972052376;0.0005820309042248244;163.0;0.0869459133825227;0.024426565455256545;0.000597234113199812;163.0;0.087746425980083;0.025062910111970715;0.0006294055132882087;156.0;0.08712887976950813;0.02561642108090896;0.0006576547420557574;156.0;0.08653642790519876;0.025826372756136612;0.0006685571723702291;156.0;0.08590450565857001;0.020844646910086834;0.0004346903218742877;169.0;0.08497272991277095;0.023431287661024456;0.0005499399729260234;166.0;0.083999835651146;0.02296038531698666;0.0005283996643734933;161.0;0.08452412384436951;0.023698977558753477;0.0005628110712774717;169.0;0.08520059262620076;0.023766429474741033;0.0005657562410953707;168.0;0.08581873674059189;0.023316426065404385;0.000544493951204345;167.0;0.0865751501693545;0.02463026294127639;0.0006076168969188663;162.0;0.08892668923433393;0.02510882072597966;0.0006312609988824539;164.0;0.0902081335035268;0.023465695685306348;0.0005521837410794574;161.0;0.08306318658060441;0.049160701651941224;0.002422590438333939;158.0;0.13261701359471653;0.048967059761975164;0.002403554373224451;162.0;0.13447667513989825;0.04736970903928387;0.002248632292840056;168.0;0.1338034727192285;0.04391566596371267;0.0019334967660837737;159.0;0.1296558025803956;0.043877680906290586;0.001929798036073073;157.0;0.12656379162015519;0.04492747108682419;0.0020233827682379617;159.0;0.12696660772128332;0.04451046950866802;0.001985507188904413;162.0;0.12691650198337495;0.04759938229925404;0.0022719472286468344;158.0;0.1270062762784964;0.03763361366095323;0.0014199930765427706;152.0;0.11820027706494496;0.03820513701472494;0.0014637879862632673;152.0;0.11934739136097916;0.039159611197212216;0.001538240682337042;157.0;0.12018929472558974;0.040724597849218565;0.0016636827570291387;146.0;0.12042209897771748;0.04160093526917898;0.0017360170522813024;147.0;0.12137336824385762;0.04265199147244599;0.0018250463466428252;147.0;0.12284733928758268;0.04496719890066787;0.0020284929221238736;156.0;0.12587727591028627;0.0374946580387707;0.0014095851581187096;152.0;0.11681412224858989
0.008590910691932484;7.403559949760098e-05;157.0;0.06736006501767729;12.0;0.02359158792621952;0.0005579424156884774;159.0;0.08688450917182165;0.023580830769212722;0.000557527202358874;160.0;0.0862336467143261;0.02280969859893244;0.0005216878701081375;156.0;0.08621679563597928;0.02288098171422208;0.0005249694215604206;150.0;0.08514975856047446;0.023455778271337425;0.0005516632389988653;152.0;0.08463199123212824;0.023312880678687458;0.0005448946343627624;152.0;0.08411299745524878;0.021067989159387797;0.00044507241472843304;162.0;0.08557675863220293;0.02155572671330595;0.0004661599313460647;162.0;0.0837148816496535;0.021714397860088067;0.00047292599074195057;155.0;0.08456628185123213;0.022989751694751016;0.0005298064862061131;160.0;0.0839115844301391;0.023574904501350902;0.0005568512697699399;155.0;0.08452913125865763;0.0234466010561726;0.000550472708428121;157.0;0.08613347627532567;0.024183247751730943;0.0005857581923885882;154.0;0.08784083207234873;0.026191565749885654;0.0006873530107521098;160.0;0.09118020912437672;0.021763715368862003;0.00047520423235766166;155.0;0.08319590090991534;0.034276795254187815;0.001178654885668135;159.0;0.1179905187001454;0.034493477796599996;0.0011936927228808464;154.0;0.11813683904651129;0.033666553424120636;0.0011370855502009205;156.0;0.11779656426001033;0.03178208907701942;0.0010133986338320229;155.0;0.11620467804168669;0.03301191331742942;0.0010933600079949214;157.0;0.11602281368785256;0.034725153601205365;0.0012097836563056148;159.0;0.11823502019821423;0.03412962239043168;0.001168648104602265;158.0;0.117329015489226;0.03208663458231506;0.0010327595341275073;156.0;0.11408143762461417;0.030663931247816852;0.0009431916736418766;153.0;0.10909465869280496;0.030906283698178504;0.0009580820944517879;155.0;0.11042259346864038;0.03187059160108469;0.00101848003141031;158.0;0.11066934726384318;0.033684290576751756;0.0011381572085483313;151.0;0.11172647685233747;0.03410044750065659;0.0011665186968751035;151.0;0.1118407132061707;0.03500173759280562;0.0012290145191622952;152.0;0.11442572100664693;0.03665835168868171;0.0013482269856074625;155.0;0.11968623259262302;0.031027365586413502;0.0009655960736601164;155.0;0.10825339626346635
0.008098130295541552;6.578941294134112e-05;158.0;0.06597384391141738;12.0;0.030975872826504637;0.0009613699978472981;138.0;0.10523778169627293;0.030540049683755642;0.0009343839439789828;145.0;0.1049403483240617;0.02916070820185563;0.0008523399711062862;142.0;0.10256342456350169;0.028562203151157907;0.00081814647310331;141.0;0.10039640832412369;0.028721296840127242;0.0008273306627490271;150.0;0.1003548437982182;0.028000176941030262;0.0007861960826940225;142.0;0.09885793149412897;0.029905815394731063;0.0008969198873096193;146.0;0.10520189041784926;0.02804177416747292;0.0007887310031964005;152.0;0.09767425851726892;0.027183252697371787;0.0007410748208950177;152.0;0.0987809895192938;0.028604976466296433;0.0008204137412421523;155.0;0.09876378088688706;0.029895644596467312;0.0008960802645781739;149.0;0.1013565295301419;0.030969759510746916;0.0009617267341242553;158.0;0.10447554302504505;0.03177336480569841;0.0010124838050035668;158.0;0.10739930588166907;0.03453031081812012;0.0011956283939175054;159.0;0.11183814456765781;0.028656867678122686;0.0008236748159814935;142.0;0.09686457914632429;0.04179348612868493;0.0017517650987139814;164.0;0.12384376626082576;0.04350555940562837;0.0018982844400548678;161.0;0.12486779973123127;0.042204113436798404;0.0017866878722493811;161.0;0.12325458466342072;0.039555489308237504;0.0015694884810983406;150.0;0.11927224368457286;0.04086705400793413;0.001675300752434365;152.0;0.11912053950340051;0.04239715017117004;0.0018032123922265028;150.0;0.1208562710755073;0.040618908238459976;0.001655116752690559;152.0;0.1190083037919473;0.03833397835847595;0.0014732519505162027;162.0;0.11851951216340102;0.03387713394625744;0.0011507549196133995;152.0;0.10697382379551133;0.033928970214808014;0.0011542564412654593;155.0;0.10749807481491508;0.03498252229186034;0.001227017766429767;156.0;0.10786660975246841;0.03697376497065739;0.0013702631157395601;158.0;0.11005145914530305;0.03738671783917577;0.0014008819271644525;159.0;0.11059661735877575;0.03932270529328612;0.001549833522857481;159.0;0.11494204055876588;0.04184992212041662;0.0017557081090134776;157.0;0.12206055130808696;0.0340826366979865;0.0011649318317318708;153.0;0.10673613063371956
0.008296591209008474;6.904266623574204e-05;150.0;0.06732179999121639;12.0;0.0362536311559278;0.0013186030781302982;135.0;0.10853296065026259;0.03490406329072821;0.0012220523317770973;152.0;0.10834927607705783;0.0335237878813098;0.0011273944795061638;150.0;0.10584564722185269;0.032709862999077584;0.0010732964266154084;152.0;0.10243248340052709;0.03256135964781641;0.0010636664069099701;165.0;0.10202194724005649;0.031397870977937316;0.0009890376898335344;158.0;0.09960118658636334;0.03163939370839161;0.0010041576805661814;155.0;0.1062529304474166;0.029331859316818146;0.0008630927225276187;163.0;0.09750442587953063;0.02852737643335846;0.0008161915990479082;163.0;0.09763409064536425;0.030382828963060653;0.0009255379624521422;169.0;0.09967234709343852;0.032025741997215765;0.0010284000370428268;163.0;0.10240278609725134;0.03229240598727047;0.0010457030671839303;167.0;0.10489326596080611;0.03262936765616257;0.0010678345629273344;166.0;0.10841606268742883;0.03382071489831647;0.0011475759741279281;159.0;0.11264462113739086;0.030045163499181394;0.0009055622004849595;159.0;0.09605191351185803;0.04509035333138535;0.0020397714743404655;155.0;0.12715448212422287;0.04598655309753836;0.0021217196904043797;159.0;0.1274189770343848;0.04454813788876063;0.001991057278544943;159.0;0.12531513421976337;0.041894261456934055;0.0017608609974927158;153.0;0.1217725227429816;0.04228153399891167;0.0017935291981991436;154.0;0.12206655537350297;0.043071960104866684;0.0018612585552765049;155.0;0.12239020221285747;0.04149489126629961;0.0017274556800622376;153.0;0.12069245202626752;0.04265665286800014;0.0018255336583810206;155.0;0.12261248914033922;0.03433154550195867;0.001182487874740207;142.0;0.11114454025895439;0.03449927097043703;0.0011940705543601832;143.0;0.11112342535244653;0.03491752237325141;0.001223188173216922;140.0;0.11107306954970897;0.036361596707952394;0.0013264718133352566;147.0;0.11295210863871606;0.03713775655376996;0.0013836997101163767;149.0;0.1145839255079881;0.038768013037023596;0.0015078709725446298;143.0;0.11783797820833936;0.04205833613522014;0.0017746366604317345;148.0;0.12506353641499918;0.03388741755020003;0.0011521123989139464;146.0;0.11061278741337985
0.008194409046656533;6.734353110279068e-05;153.0;0.06540734223747091;12.0;0.03392070459959397;0.0011539564798738677;147.0;0.10476060585073432;0.03282255762346927;0.0010807118843526593;155.0;0.10485496930946095;0.03148024144432831;0.0009942322230430266;154.0;0.10336570299351289;0.030581046344587207;0.0009382465298492078;159.0;0.10023076147906207;0.03032571502694729;0.0009226576199655623;165.0;0.09879233748131125;0.029558285307873088;0.0008765508363391228;168.0;0.0973694100821254;0.027150733088363053;0.000739550638995321;159.0;0.10034959708152097;0.026869868143186752;0.0007241850656521752;164.0;0.09521526973735743;0.026363829321342593;0.0006972210198390277;164.0;0.09495778128364898;0.027063397784873513;0.0007347958181835988;164.0;0.09643186173359639;0.028067570970527592;0.0007902610810275813;157.0;0.0970829032900441;0.027739645726450095;0.0007719075628236236;161.0;0.09913891771662091;0.028674311141865697;0.0008247798885955721;160.0;0.10319201017030248;0.0315020297688641;0.0009955901073825423;152.0;0.10860900247451379;0.02901653420437289;0.0008444712168139131;167.0;0.09541588896710228;0.0535042589246803;0.0028648932839602285;153.0;0.13922595005485558;0.05550480518078613;0.0030832410764044783;156.0;0.14079421341148937;0.05517796868379311;0.003047420218419364;157.0;0.13893631560678088;0.05327748045830029;0.0028440243404468366;159.0;0.13266126218494256;0.05398487114887216;0.0029210629476374836;157.0;0.1306780260412998;0.05454587123788084;0.0029822671701545773;157.0;0.13014568820979364;0.05358927355940012;0.0028793180387704414;151.0;0.12935876394845672;0.051251640139166096;0.0026276246690862693;147.0;0.1353971207469143;0.048444890516512074;0.0023513455385208693;147.0;0.12170125049498196;0.049024753359772286;0.0024081771606013123;147.0;0.12206111196606285;0.049494634651185504;0.002454455675423637;148.0;0.12180227315383947;0.05058238854434072;0.0025639772751916232;159.0;0.12359281042831265;0.05151416772903079;0.0026595360648290632;159.0;0.12475546577180693;0.0522012940784234;0.0027308303655141754;156.0;0.12620722953055274;0.053839438790619705;0.0029056486727350524;159.0;0.13170081403736225;0.04729406530280951;0.0022407914127739173;149.0;0.12037006249010607
0.008098511080726617;6.57752670432771e-05;153.0;0.06603646659414097;12.0;0.0334215203316455;0.0011180485575517792;155.0;0.10681952565648442;0.03296871233629574;0.001090239839685064;153.0;0.10715786023664686;0.031427610779634164;0.0009907136996564977;152.0;0.10563459993037828;0.029376385921178007;0.0008655467811560422;154.0;0.10245062806415925;0.02842259657370973;0.0008102589195890355;154.0;0.10084545877081591;0.028049242326302813;0.0007890636583147382;157.0;0.10013223741975427;0.02805009967241283;0.000788799552367417;160.0;0.10286758550360195;0.02646456970440828;0.0007025349632504567;161.0;0.09792176314011669;0.02554450266899617;0.0006544680030815058;163.0;0.0975786165727986;0.02585677329235301;0.000670373902293727;155.0;0.09860147648285941;0.026409537485611288;0.0006989749593440732;151.0;0.09819844053473684;0.02793556716551531;0.0007815633305174037;150.0;0.10158355339560202;0.030585416313570882;0.0009369981850730832;147.0;0.10664484513905119;0.03580676403230837;0.0012828454071353648;143.0;0.112806901396704;0.02771091077655453;0.0007699924038034426;166.0;0.09751852515998402;0.06190400356546463;0.0038438635437509864;152.0;0.15277901876858913;0.06519690363861291;0.004262470411538289;163.0;0.15532000210627311;0.06395636884861895;0.004101293743442048;162.0;0.1531989601443629;0.05966037250871179;0.0035694884418917164;165.0;0.1435654769930036;0.05988095955727814;0.0035951108016391044;158.0;0.1385312350679435;0.060925770164204945;0.0037219528970913467;149.0;0.1373324104111531;0.059820636594660796;0.003588641207128189;153.0;0.13718134691438597;0.05780847203194755;0.0033525161324703097;149.0;0.1479556543529903;0.05221894527109302;0.0027352064161190698;154.0;0.12764093163608523;0.052356988761270276;0.002749647951170119;153.0;0.127837923773448;0.05279498831097583;0.0027957646427568573;156.0;0.1286148076232354;0.05388520329920459;0.00291251600159317;160.0;0.13054472049159593;0.055049757565806615;0.0030395983250597995;162.0;0.13178116393079528;0.056471924545812534;0.0031984869554407824;162.0;0.1345614350480567;0.059237335127091256;0.003519796097478093;164.0;0.14057284847114254;0.051441783526749656;0.0026539841845665785;155.0;0.12572945442544395
0.007996019109583698;6.414393729392791e-05;150.0;0.06691780149061505;12.0;0.03155635787066148;0.0009990584150620888;134.0;0.09874117754182629;0.028206765228481333;0.0007980318175901024;160.0;0.09798676451313017;0.026967188506034995;0.0007294697124273308;160.0;0.09652698045871738;0.025421926741082387;0.0006482835451611901;157.0;0.09430925236051464;0.024964395972622445;0.0006252356418090497;150.0;0.09409649456381029;0.024905586144595315;0.0006223118268968511;149.0;0.09380279910144684;0.026195525645797163;0.0006883874432416167;151.0;0.09664443694967519;0.022080743212949897;0.0004888541844489943;149.0;0.08860178224318149;0.022477101838826723;0.0005063555817546853;147.0;0.08958694932922232;0.024166611355660315;0.00058545248675752;141.0;0.08943327707802586;0.025346251687897677;0.000643710180576319;140.0;0.08994220808792318;0.027921722624309295;0.0007815093413461344;141.0;0.09437968543939808;0.0303720776968683;0.0009241249960201173;134.0;0.09841409773638274;0.03442579901853166;0.001188437909649791;127.0;0.10496511788094702;0.021916743197865306;0.00048128555215660226;160.0;0.08909857267022663;0.05953373570274022;0.003552625064021279;151.0;0.1522135122384098;0.060978181209874735;0.0037264059191943377;157.0;0.1521757498131628;0.05783005565584085;0.0033513745800245465;156.0;0.14915245063838994;0.050794438284949395;0.0025853504923791936;160.0;0.14145191155173498;0.04959600736099436;0.0024662775346439444;157.0;0.13829390749553105;0.05048324022906001;0.0025554888355282723;151.0;0.13760669783561255;0.0499029709499385;0.0024968350857445033;156.0;0.13729344115544242;0.055817408194003285;0.0031223021821547405;153.0;0.14835238180645466;0.04244108993540986;0.0018050937658107375;148.0;0.12700906924772978;0.042545825693206044;0.0018145523709867403;148.0;0.12747562843753193;0.042937221117539615;0.0018481339040024112;156.0;0.12806095848678134;0.043839579964022976;0.0019259132886276468;154.0;0.13033286890581797;0.04479011661873497;0.002010777118340707;155.0;0.13190597336679052;0.046480091521613504;0.002165314669204329;154.0;0.1356431412963359;0.05013939909169981;0.002519927423940881;153.0;0.1430473567199871;0.04199173361661466;0.001767404734613221;150.0;0.12462621753735044
0.007935237324669943;6.316950981784291e-05;149.0;0.06465478192587065;12.0;0.30912690455571024;0.0958029596297282;139.0;0.17630536891772014;0.023855071235783936;0.00057075428431489;167.0;0.09046378447086717;0.023507769259163952;0.000554334185280354;167.0;0.09057073953749491;0.023836130409439615;0.0005699686797169966;162.0;0.08898071418617166;0.025030456316859104;0.0006284853226031197;158.0;0.08968245503892605;0.025806535846903938;0.0006680554260657531;154.0;0.09079250154430114;0.023278830034175607;0.0005434589627749536;157.0;0.08969990391150275;0.024732755610680304;0.0006126815155597158;144.0;0.08739469318507381;0.026165959272709635;0.0006860345400841595;137.0;0.08929368680302811;0.02912560251644117;0.0008497332985011925;131.0;0.08964115396265619;0.03083526684951533;0.0009518887277320586;133.0;0.09133602538035739;0.031901349051453566;0.0010180775309754494;141.0;0.09359209436164243;0.03196842279172555;0.0010225195637231295;137.0;0.09570454953538139;0.03190107763663563;0.0010175655325643678;138.0;0.100575299490426;0.02172822809125141;0.00047310652689726745;143.0;0.085945461865768;0.056826320385959354;0.0032397280739075154;169.0;0.14850138075410474;0.05617843215742706;0.0031656131328508842;169.0;0.14683002245593454;0.054128209514363;0.0029383754995054375;169.0;0.14441121711995367;0.05003982574709;0.00251088220150785;164.0;0.13901961717234737;0.04924502331071739;0.00243133871557807;168.0;0.13672251121709625;0.04934510410047678;0.0024415694787070065;169.0;0.13535564677436085;0.048458770883648604;0.0023544061883803823;168.0;0.1338146915087159;0.055771359503592806;0.0031205779506699727;168.0;0.14635500087066722;0.04314795951053994;0.0018672264422175794;160.0;0.1265634106156577;0.04356680631185426;0.0019037124899744158;161.0;0.12757748625000967;0.04462285298551762;0.0019970409203714946;170.0;0.12889582473882785;0.04662658313433578;0.0021798133757185757;166.0;0.1316825972723221;0.04720195516111802;0.002234323041565136;163.0;0.1335742454972923;0.04914435010115666;0.002421662205147431;165.0;0.13726916117201102;0.05267489781837287;0.0027822948385209613;164.0;0.14378200239098804;0.04187440020596301;0.0017585726366849306;162.0;0.12380949695442738
0.007869466601938692;6.213092153940219e-05;155.0;0.0632703241398524;12.0;0.8181898737241683;0.6693062868758335;142.0;0.3085814658748347;0.026509483549623344;0.000704793773126813;164.0;0.09572164755863107;0.025558025202423677;0.0006553284604388477;160.0;0.09501197834438567;0.025468390864780432;0.0006507543619857088;160.0;0.09245596124819722;0.025767904081481354;0.0006661053315259598;163.0;0.09126309310679573;0.026017764158946646;0.0006789604115127134;157.0;0.09135833359906036;0.023875859112369686;0.0005719148783451357;167.0;0.09258446252319359;0.026676190152516533;0.0007139404219613153;155.0;0.09038124082883502;0.026839043181753678;0.0007226972409659678;154.0;0.09157750881779958;0.028816006813924055;0.0008330010233774549;151.0;0.09218288940724152;0.029804478652971228;0.0008908839548568756;148.0;0.09252390390520694;0.0305883224946219;0.000938340094313093;153.0;0.09297471028970329;0.03144572200886977;0.0009912783138334332;148.0;0.09670517599144833;0.03299872014566842;0.0010920723406228577;153.0;0.10058739702859762;0.02244816990412959;0.0005055735464612897;150.0;0.08723043892149551;0.051195134662333774;0.0026294702408298106;163.0;0.14088237757626332;0.05055714860516513;0.002564352940310789;167.0;0.1399318842896721;0.049782634731340765;0.0024864340147164824;168.0;0.13851085794651694;0.04754003574342692;0.0022674546470176932;168.0;0.13327789277702873;0.047198800776303514;0.002235025288732237;171.0;0.13159184368262775;0.04751201032017667;0.0022647650520430536;173.0;0.13029346871526454;0.04642663676231192;0.002162484779083899;171.0;0.12809726309387953;0.05021927480387015;0.002530115437211351;162.0;0.1394158204224143;0.043096182442143825;0.0018632524176923266;172.0;0.12441123771213243;0.04341047368622642;0.0018904782808367312;168.0;0.12579615439316047;0.045081430185356326;0.002038778586637297;166.0;0.1274290091940317;0.04769235182917273;0.002281861577968012;160.0;0.1299663283140082;0.0484668876541811;0.002356721613704597;159.0;0.1319167276906734;0.050478728193970486;0.0025564495817319874;158.0;0.1346387517914605;0.054355377873512536;0.002964179360445269;162.0;0.1404286720908558;0.041374620519904134;0.0017174733839324873;177.0;0.12157439050587489
0.00790119371099537;6.263289719220145e-05;159.0;0.0629128932129713;12.0;0.8749789523051705;0.7672504497477202;148.0;0.30026013866675844;0.022600998731557773;0.0005124250884234499;161.0;0.09466144722873802;0.021640399965462166;0.00046982998181392514;151.0;0.09369450771954091;0.02132388631715241;0.00045610859308039327;154.0;0.09124577040222315;0.021156631301951483;0.00044898850599307995;156.0;0.08944301227440354;0.021238687718859086;0.00045252968837868247;151.0;0.08880862725316813;0.02002477472160357;0.0004022924971266951;162.0;0.09262336116555046;0.020628338628576985;0.0004255638113269329;159.0;0.085501128374382;0.0204174056399733;0.0004170300268353577;168.0;0.08650408185692982;0.0221526322243443;0.0004906427514944719;178.0;0.08807122665428842;0.022597769672785914;0.0005107119951799738;172.0;0.08893679796935544;0.024339861992699455;0.0005924251544125877;171.0;0.09219183120180349;0.027413377056569304;0.0007524434902386401;164.0;0.09825866197561758;0.0299122706783701;0.000896231300625565;158.0;0.10137781382467337;0.019561477362124075;0.0003828873673555373;163.0;0.0844654293608214;0.04646919464966244;0.0021663608147074985;154.0;0.13323077264030156;0.045904354743493705;0.0021140193491015315;156.0;0.133513704197622;0.0444159295984826;0.001979091888810734;154.0;0.1317626993354081;0.040439119942337294;0.0016401748425776857;154.0;0.12564046775573015;0.039384474578837196;0.0015555408332267777;152.0;0.126550594325993;0.039425369014833275;0.0015585956761708867;158.0;0.12775822547764945;0.0390111082595986;0.0015255951765220112;157.0;0.12739173408893642;0.04468329253648895;0.0020029580494410337;158.0;0.13019270223528673;0.03882988106314943;0.0015125404513626388;153.0;0.12133425991800624;0.039317725704711703;0.0015508981845164143;150.0;0.12244151973376491;0.040679251212523325;0.0016600783682385672;145.0;0.12211749441071419;0.04232438062883442;0.0017970485736645498;142.0;0.12328502760533869;0.04319934947465498;0.0018722514655647832;145.0;0.12484730513556042;0.04446475454626005;0.001983576079075802;136.0;0.12612131262953583;0.04658946708014018;0.0021775386814190715;139.0;0.1302284056103548;0.03699926446477563;0.001373385050412202;162.0;0.11910051546254015
0.008142629858778777;6.651811625725843e-05;161.0;0.06383827828553455;12.0;0.4677264483775754;0.21704938322040948;153.0;0.1737049255328607;0.019442743292624055;0.00037926157637774196;162.0;0.0886669286605318;0.019473077945591083;0.00038041958515142905;157.0;0.0880336483310613;0.019773997354119163;0.0003921455188880667;157.0;0.08650028119785019;0.020251982127596435;0.0004112080163551997;156.0;0.08484789330729217;0.020472039119861497;0.0004199790848703863;152.0;0.08371482799170508;0.019680951938014807;0.0003882585680183784;160.0;0.08979102172509822;0.0209446962510035;0.00043962557367507047;143.0;0.0839306920099171;0.02227721712594932;0.0004974361853605747;160.0;0.08459596492739399;0.02534116777691063;0.0006436518629568999;169.0;0.08736531224002204;0.026739060999206695;0.0007167411842299296;167.0;0.08932788578540066;0.028817758460326075;0.0008325684179085363;166.0;0.09534640144110014;0.031036581041521915;0.0009659549114662614;165.0;0.10070826506090598;0.03169467666787557;0.0010073450878734964;160.0;0.10324698946712822;0.02082537490217674;0.0004350016305629294;152.0;0.08421350490263631;0.04633542918244443;0.0021539541494631533;161.0;0.13786176589101973;0.045341542392522506;0.002062573977251286;162.0;0.13735734861439228;0.04441470834485901;0.001979106429317783;157.0;0.13514002366103842;0.042043125262702735;0.0017733789480779843;148.0;0.12937823699562825;0.041992156299610034;0.0017690657474852417;147.0;0.12891510816712368;0.042189464949678686;0.0017857078805708442;154.0;0.1289101913944521;0.041419806224899235;0.001721078237391454;154.0;0.12869732642110074;0.04590941231524245;0.00211450523588398;164.0;0.13507901340302383;0.038009883063625204;0.0014494014362142612;152.0;0.11965908120576325;0.038456430636463514;0.0014837244262132791;149.0;0.12072303806448977;0.03870357782553314;0.0015028581938008642;151.0;0.12043077108674008;0.039916859041368206;0.0015985601786931208;146.0;0.1226388576404534;0.04027978929501727;0.0016277538256672577;149.0;0.12440374813855168;0.04147732289838206;0.0017259911568843827;139.0;0.12571423555908956;0.04300287075407739;0.0018552885873561677;139.0;0.13003977613291456;0.03713235548862493;0.0013832584300770001;159.0;0.11789280290969088
0.008140927561679943;6.649190935683892e-05;160.0;0.06367348600610695;12.0;0.18082901321169237;0.032486286653027496;145.0;0.11883507782593351;0.02251800079128074;0.0005081016836506086;153.0;0.08665673338820191;0.022331522812473276;0.0004995777931746089;161.0;0.08590912059104905;0.02336601168686668;0.0005467269791890913;158.0;0.08587559648513944;0.0239814473659383;0.0005758596800558008;157.0;0.0844986468004764;0.023926876251207308;0.0005732133678741405;155.0;0.08383390780211987;0.02325478778312263;0.0005421484125092387;158.0;0.08625691525197948;0.025886563227518037;0.0006697886053491469;155.0;0.08589328705213832;0.02726662206402248;0.0007428323293482193;167.0;0.08612528397436194;0.029961296434993453;0.000895754625631563;163.0;0.08747266556310858;0.03152680980092932;0.0009927049437120456;162.0;0.08928866705919969;0.03308555401321598;0.0010927836766489135;163.0;0.09320356760501695;0.03311062358423013;0.0010959467386004631;162.0;0.09587635981013365;0.03342181739520089;0.0011183154475275117;162.0;0.09810080048687851;0.02504382949209038;0.0006266788025434767;156.0;0.0867337879783546;0.04533825171612542;0.0020617129164403874;154.0;0.14283930772241876;0.04516754050773774;0.002046200700790592;156.0;0.14224492590387963;0.04460671629531512;0.00199564858047796;156.0;0.13959680618116824;0.04226699865625393;0.0017916842290455232;150.0;0.13212971036060625;0.04172647168688414;0.0017460775653502785;148.0;0.12813112630561574;0.04182561670107811;0.001754205378469166;147.0;0.12560220891518675;0.041136497529954394;0.0016968652567590486;148.0;0.12457685833105099;0.0442965705102605;0.0019682629174684395;151.0;0.14016677810691588;0.03614391013574818;0.001310138923618692;157.0;0.1183728403155671;0.03676268503690497;0.0013554859213692682;156.0;0.12028203942743192;0.037213879724434414;0.0013889469796398285;158.0;0.12093826844831486;0.03873185358773553;0.0015046200736160392;153.0;0.1231571574694324;0.03920801447022148;0.0015421394034474593;154.0;0.12489251981679111;0.04128013562534691;0.001709512984980965;150.0;0.12651825518744816;0.04439908028589674;0.0019776768664658113;149.0;0.13111360352163026;0.035247878509846835;0.0012459797315401812;156.0;0.11605934418018611
0.008248288156365873;6.824689154108772e-05;148.0;0.06568316142405509;12.0;0.07484406739188752;0.005602293176770488;152.0;0.11174076203185862;0.03232068636234794;0.0010480328910473739;158.0;0.10051065295844056;0.03316826785864209;0.001103532416035214;160.0;0.10085672952027121;0.03365101118447905;0.0011360627911287213;161.0;0.10018617551269807;0.03379080305420617;0.001145561501166148;164.0;0.09877686152931198;0.033529129597446465;0.0011278935812532752;163.0;0.09931487169547917;0.031116986371637182;0.0009714664412909036;158.0;0.09841965986722527;0.03264680865616283;0.0010693332287230323;170.0;0.09439165219673729;0.0335948000582701;0.0011323399994903388;181.0;0.0944800697170177;0.034414133812745024;0.00118815951720121;178.0;0.09399170180420503;0.035683994105213175;0.0012772761058088375;171.0;0.09538447219854612;0.03598977514269916;0.0012992813408983367;169.0;0.09631798942701629;0.035120618663893176;0.0012371384310166955;165.0;0.09950226717010946;0.03509020204745563;0.0012347867138602859;162.0;0.10304921167256793;0.031913465850022686;0.0010218209857450961;166.0;0.093360670481028;0.046404123556734914;0.0021569721292605776;150.0;0.13983448013595387;0.04791105242143151;0.002301525355646194;152.0;0.1415901754381183;0.047587852901109944;0.0022712467256817146;160.0;0.13929739106891764;0.045268569218816966;0.0020553378512228903;155.0;0.13179706671680036;0.04531970313810642;0.0020600370681138802;148.0;0.12683544803141464;0.04555379725788134;0.002081187194582418;147.0;0.12486630699971173;0.045386406395434176;0.0020662084120259988;149.0;0.1249525230465467;0.04404506343498291;0.0019423436115720144;145.0;0.1351685550812117;0.037050838253576954;0.0013759717296337537;159.0;0.12025497500584452;0.03723587575023578;0.0013900273775632349;159.0;0.12167053360208324;0.03790227869943321;0.0014405960789521332;155.0;0.12251412038313964;0.03889051878582953;0.0015165850280205505;150.0;0.123046251010098;0.03923736875025303;0.0015437750554763534;146.0;0.12441538438226567;0.040973927331125565;0.0016834899518516327;143.0;0.12573362728781956;0.04422982477935495;0.0019618086769469818;141.0;0.12891604751425081;0.03695089499561455;0.0013681766856689023;154.0;0.11857509160884262
0.008307369983794867;6.92282373729532e-05;148.0;0.06431019269405212;12.0;0.047644704507856836;0.0022745350482002956;161.0;0.12020817281732805;0.03842144822434726;0.0014800396307553243;159.0;0.11650752202330313;0.03791633251137104;0.0014417403969995768;160.0;0.11553158812507129;0.037212771045127664;0.0013885785862513505;162.0;0.11306933540640622;0.037242247539231735;0.0013910611868160777;163.0;0.11136229429887423;0.03684853311921636;0.0013617480615992694;159.0;0.11111999064970103;0.033972021644111124;0.0011576876923686105;159.0;0.10890592770773525;0.034084524926646514;0.0011644311704655551;144.0;0.10287698878899741;0.03458564158177304;0.0011986173501792776;156.0;0.10298718179956462;0.034755391100601794;0.0012096198439957727;159.0;0.10151074046004824;0.035635179674580277;0.0012717481367695886;154.0;0.10176891894635381;0.03592619196075029;0.0012932576699485154;150.0;0.10329901479508492;0.0365327449073468;0.001337305664456765;147.0;0.10741532577109944;0.037978034121962094;0.0014465006590405;146.0;0.11325068110898562;0.033401644208814224;0.00111812012932344;154.0;0.10004005454425477;0.05276247618181073;0.0027908209295508355;147.0;0.13877598684620449;0.05502402658788341;0.0030349827109290165;153.0;0.141237841459192;0.0563143854763001;0.0031791099795226577;160.0;0.1403099313351093;0.054934960000693936;0.003025026699131904;162.0;0.13433706824512112;0.056127405605269826;0.003157285691330621;153.0;0.1307016339659091;0.05669497449165222;0.0032207189419366945;156.0;0.1290521108005181;0.05541814652755306;0.0030777098111721165;157.0;0.12809590194576312;0.05113201876067269;0.0026203873986153747;149.0;0.13340705392052102;0.046394727970148854;0.0021580168437321297;158.0;0.1206828223104633;0.0467736886507787;0.0021940153557038055;155.0;0.12136668135892645;0.04817431041495074;0.0023276989730292626;152.0;0.12244589175952891;0.05000878024582726;0.002508573554600094;154.0;0.12315714274114212;0.050578460345737646;0.00256607582025525;149.0;0.12416763630107766;0.05204537018274046;0.0027173518783172724;141.0;0.12573114625196927;0.05416590064126977;0.002943378115548033;145.0;0.1280890589741306;0.046453746252960344;0.002163821142050321;157.0;0.12010053465502614
0.008220378056282927;6.779171335390428e-05;161.0;0.06224507019929716;12.0;0.31296861467030307;0.09760042139290113;154.0;0.19287608532679515;0.03937264746325262;0.001555131103284551;157.0;0.1170834890310103;0.03803374176060592;0.0014504161008134374;167.0;0.11520194858418405;0.037958157986880396;0.0014443492038384025;161.0;0.1130644096315701;0.0395730901017992;0.001569982098913903;156.0;0.11240262678046421;0.0398931453759636;0.0015952805659285752;154.0;0.11203253417401438;0.034120349293900155;0.001167861166801976;162.0;0.10913278087532162;0.0367171331819917;0.001351824291654608;142.0;0.10577367238823958;0.03550159833864201;0.0012637260233381437;145.0;0.10482812418355396;0.03547440258458421;0.001261622585399808;150.0;0.10399520580273874;0.03595412545431289;0.0012959741885259818;149.0;0.10411436539921008;0.03745640552836983;0.0014065959114931633;145.0;0.10661195249150975;0.03962849066145395;0.0015742488861038232;147.0;0.11168916257951579;0.043577684634153395;0.001904739241061706;153.0;0.11932907401144335;0.035447800382600425;0.0012599106538956407;155.0;0.10394116427700995;0.057799465397234774;0.0033515876686417453;143.0;0.14749744843338433;0.06022316407618995;0.0036383719318273636;149.0;0.1481039840175302;0.061082715613744426;0.003742818946124312;147.0;0.14672271389408664;0.05829495434360714;0.0034093959201966662;146.0;0.14008371537230446;0.058176106199706985;0.0033952493643535243;146.0;0.13754421131003075;0.058473435456189556;0.003429775984923416;153.0;0.13682862104854362;0.05663394664483157;0.003217200416431839;155.0;0.13497268603329277;0.05442544017135807;0.0029717126948538434;145.0;0.1414146530979256;0.04848818379864859;0.00235842258525217;151.0;0.12542287397461455;0.04868438883838952;0.002377857716345749;150.0;0.12589270649148757;0.049940735354343214;0.0025022092359386293;144.0;0.12801912845086008;0.0522479349999974;0.002738756486295305;153.0;0.12985132144752912;0.05323725302656843;0.0028433402622380375;152.0;0.13038783175687607;0.055582337691076726;0.0030993486811599956;149.0;0.13309376716232885;0.05882293099700626;0.0034711423776052383;154.0;0.13723651511697496;0.048136229841500476;0.0023240755249943662;153.0;0.12469637255294584
0.007858642458803518;6.195085795550083e-05;156.0;0.06411552482180603;12.0;0.48370357510430706;0.23436385003749416;144.0;0.21834751137233505;0.039422155359030375;0.0015582096471111677;146.0;0.11390191879655037;0.038850268137784257;0.0015137935886792545;152.0;0.1126623390723955;0.039055507404815046;0.0015301504482185884;154.0;0.11035780209006564;0.040415766011240084;0.0016386891978654042;153.0;0.10960966905869299;0.04039863569694843;0.001637336370296963;152.0;0.10904389595413867;0.0343837188387332;0.00118546898989481;150.0;0.10806435991935225;0.036368800662733305;0.001326939945541457;141.0;0.10376705354815982;0.03518287685591658;0.0012415252430944572;144.0;0.10330587615168184;0.03504979934910331;0.0012319029685311663;141.0;0.10253457658985703;0.03526935231738092;0.0012471473580541127;138.0;0.1029527897758684;0.036767348031078534;0.0013554719495587277;134.0;0.10561564008780937;0.03820721503369527;0.0014635538996271664;137.0;0.11082378106218045;0.04143770237248915;0.0017219686852436614;151.0;0.11829799535597253;0.03531603326607301;0.001251297936283812;164.0;0.10311225352343013;0.0562066728926623;0.0031624021866198276;151.0;0.1468858179757147;0.05634653625054802;0.0031786734837965583;156.0;0.14671391184664134;0.0544039619026148;0.002963730775061727;153.0;0.14422254235871124;0.04882218735220252;0.0023866968624483343;151.0;0.13642704998196684;0.04716538487145904;0.00222860835512024;146.0;0.1339341389860851;0.046797170544669704;0.0021930020951855165;150.0;0.13391333978387082;0.045602246659492716;0.0020841177884575158;154.0;0.1330831740135816;0.05052413281808796;0.0025536536025342134;151.0;0.14066021327688158;0.03901320514522686;0.0015251331793138055;155.0;0.12498908510206405;0.03912154887665342;0.0015340962891633786;152.0;0.1254708192764381;0.040049574412393645;0.0016081449918054118;144.0;0.12762520204322522;0.042349551624543354;0.001798009324919218;146.0;0.12975716587069824;0.04371837327471708;0.0019165571880335236;147.0;0.13062730668053799;0.046541374307374414;0.002172062915352144;150.0;0.13346659323633744;0.05153396466218454;0.002663549581638449;150.0;0.1389048445107554;0.038729658561909006;0.00150258197592158;155.0;0.12372714140136874
0.007732625082530119;5.998635225866731e-05;152.0;0.06322443903403753;12.0;0.39134682207798943;0.1527954762305814;167.0;0.16041936133034476;0.03879250149032953;0.001509774606724015;152.0;0.11071838582347755;0.03789087172934306;0.0014402919016309444;152.0;0.11017692604104633;0.036648965896129614;0.0013474575675057926;159.0;0.10692534640603651;0.035816937058259814;0.0012869936978616276;161.0;0.10604787705515008;0.0343575511721246;0.001184185342344112;160.0;0.10526508169959693;0.03135350428303981;0.0009862716049769992;153.0;0.10409193863309184;0.03005237423908106;0.0009059031046778033;152.0;0.09855623360677354;0.03006738537182931;0.0009068332087279746;152.0;0.10058745423205653;0.0315679960411863;0.0009996711035561775;140.0;0.10073568186448377;0.03253871561603229;0.001061908488679714;142.0;0.10218115581667321;0.034741745749547435;0.0012107851824650925;137.0;0.10659985541258976;0.03640813544300829;0.0013297663403324259;137.0;0.11290763235501472;0.038528521777121204;0.0014892369574219277;145.0;0.11871848602640142;0.029875092765615004;0.000895337249255839;163.0;0.0976741268865916;0.05857372595048338;0.003442061375245158;165.0;0.1413400103207143;0.05739150452537177;0.0033045693462514687;163.0;0.14030265189081514;0.055599576088496604;0.0031012970605043856;165.0;0.1375060825103287;0.05156793799887417;0.002667936037983045;167.0;0.130705512956285;0.04927069030116189;0.002435430422015039;159.0;0.12732291266257315;0.0481465908831653;0.0023251766421326283;153.0;0.12692143798066768;0.047121049615656586;0.002227105253952887;151.0;0.1268366964605565;0.05550219268919834;0.003090509845204736;171.0;0.1378374785641314;0.04354555115507167;0.0019018416138236172;154.0;0.12232640281399822;0.04365467376803027;0.001911750121782162;153.0;0.12268019106253052;0.043820324497977944;0.001925931480388346;149.0;0.122906769648952;0.045135654397022135;0.0020430491470690643;145.0;0.12341308506677215;0.04586616871611953;0.0021099503721926493;145.0;0.12453273694056256;0.048076269902957346;0.00231829287868716;145.0;0.12680907756347148;0.05207996716426496;0.002720791527759423;150.0;0.13112994621615;0.04359268482843115;0.0019056904290993164;151.0;0.1216165518127955
