rms_s1_ch1;var_s1_ch1;zcr_s1_ch1;wl_s1_ch1;rotule;rms_s1_ch2;var_s1_ch2;zcr_s1_ch2;wl_s1_ch2;rms_s1_ch3;var_s1_ch3;zcr_s1_ch3;wl_s1_ch3;rms_s1_ch4;var_s1_ch4;zcr_s1_ch4;wl_s1_ch4;rms_s1_ch5;var_s1_ch5;zcr_s1_ch5;wl_s1_ch5;rms_s1_ch6;var_s1_ch6;zcr_s1_ch6;wl_s1_ch6;rms_s1_ch7;var_s1_ch7;zcr_s1_ch7;wl_s1_ch7;rms_s1_ch8;var_s1_ch8;zcr_s1_ch8;wl_s1_ch8;rms_s1_ch9;var_s1_ch9;zcr_s1_ch9;wl_s1_ch9;rms_s1_ch10;var_s1_ch10;zcr_s1_ch10;wl_s1_ch10;rms_s1_ch11;var_s1_ch11;zcr_s1_ch11;wl_s1_ch11;rms_s1_ch12;var_s1_ch12;zcr_s1_ch12;wl_s1_ch12;rms_s1_ch13;var_s1_ch13;zcr_s1_ch13;wl_s1_ch13;rms_s1_ch14;var_s1_ch14;zcr_s1_ch14;wl_s1_ch14;rms_s1_ch15;var_s1_ch15;zcr_s1_ch15;wl_s1_ch15;rms_s1_ch16;var_s1_ch16;zcr_s1_ch16;wl_s1_ch16;rms_s2_ch1;var_s2_ch1;zcr_s2_ch1;wl_s2_ch1;rms_s2_ch2;var_s2_ch2;zcr_s2_ch2;wl_s2_ch2;rms_s2_ch3;var_s2_ch3;zcr_s2_ch3;wl_s2_ch3;rms_s2_ch4;var_s2_ch4;zcr_s2_ch4;wl_s2_ch4;rms_s2_ch5;var_s2_ch5;zcr_s2_ch5;wl_s2_ch5;rms_s2_ch6;var_s2_ch6;zcr_s2_ch6;wl_s2_ch6;rms_s2_ch7;var_s2_ch7;zcr_s2_ch7;wl_s2_ch7;rms_s2_ch8;var_s2_ch8;zcr_s2_ch8;wl_s2_ch8;rms_s2_ch9;var_s2_ch9;zcr_s2_ch9;wl_s2_ch9;rms_s2_ch10;var_s2_ch10;zcr_s2_ch10;wl_s2_ch10;rms_s2_ch11;var_s2_ch11;zcr_s2_ch11;wl_s2_ch11;rms_s2_ch12;var_s2_ch12;zcr_s2_ch12;wl_s2_ch12;rms_s2_ch13;var_s2_ch13;zcr_s2_ch13;wl_s2_ch13;rms_s2_ch14;var_s2_ch14;zcr_s2_ch14;wl_s2_ch14;rms_s2_ch15;var_s2_ch15;zcr_s2_ch15;wl_s2_ch15;rms_s2_ch16;var_s2_ch16;zcr_s2_ch16;wl_s2_ch16
0.02134008182141692;0.0004564366454541134;160.0;0.08278358269950144;12.0;0.025893812070727995;0.0006712599993319709;160.0;0.08419492412014996;0.030274957500819225;0.0009175250215104162;150.0;0.08369810623071652;0.03225898348588218;0.0010417804358611366;152.0;0.08351825190761898;0.032616335748222154;0.0010651348118866206;151.0;0.08283677706049355;0.031656001788700906;0.0010033484209817812;156.0;0.08224756208614285;0.029850035681235988;0.0008920714092329746;156.0;0.08057838449150273;0.01894945529864525;0.00036000060590615947;159.0;0.08261087732503111;0.023337868256690136;0.000545242703192365;148.0;0.07538467121824273;0.02299850981272075;0.0005296077282830443;151.0;0.07439503620939936;0.022874823983313253;0.0005238436631150831;154.0;0.0756434930553226;0.023057033529448705;0.00053233458891238;149.0;0.07627016019102562;0.02246608202875618;0.0005054776474647379;146.0;0.07764526435112118;0.020658141134090202;0.00042764507726651484;151.0;0.07892755813178587;0.018777920608446883;0.00035350875394614005;165.0;0.08092320752789973;0.023782905489742472;0.000566361211048228;148.0;0.07526940978392775;0.08757708428531917;0.007693579660557943;148.0;0.14069142524325384;0.08572692441825115;0.007371837728574194;150.0;0.13826478522095847;0.08499485188825506;0.00724587543116073;149.0;0.1374722918182067;0.08395957017042666;0.007070371641464471;149.0;0.13670322315197167;0.08188031849490301;0.006724171885578497;144.0;0.13593311621969906;0.07898338788127524;0.006256352709280695;141.0;0.13414736368935012;0.07802054984398034;0.006104216234103144;144.0;0.1330268207816336;0.09003203639533792;0.008131861740188744;147.0;0.14498412526569526;0.08112542161167792;0.006596422925538528;144.0;0.1301632158038065;0.08421179358573888;0.007107005316700105;142.0;0.1306186455983193;0.08926153158115131;0.007986877909784472;139.0;0.13310335433678253;0.09808868769925627;0.009644966538766675;145.0;0.14117489263767388;0.09764911887241813;0.009560070594973522;144.0;0.14117333399388843;0.09846277060094459;0.009718807092798288;146.0;0.14202915130355293;0.09797943664810406;0.009624637555982104;144.0;0.14099125833202925;0.08119153462147852;0.006607979072281975;153.0;0.1304774384115065
0.07938175271587676;0.0063209388744639924;156.0;0.1488284460013476;12.0;0.07781571989476639;0.006074597986856206;151.0;0.14625676099099968;0.07434090217124201;0.005544674713470081;149.0;0.14229946620320602;0.07144036392848359;0.005120503121679488;152.0;0.13883371001311062;0.06895527180901236;0.004770420915353999;145.0;0.13641163597276718;0.06527634834590021;0.004274807016095143;148.0;0.13287449576097132;0.06227210335311963;0.0038903565290202267;149.0;0.1302130367497096;0.06556911727685015;0.004310208985268429;158.0;0.1425273635841568;0.07053080926921675;0.004985556802711982;142.0;0.1294242462525245;0.06938139206017793;0.004824249450448488;140.0;0.1288799075698532;0.06717219851787884;0.004522956798758441;141.0;0.1286483451241546;0.06541366364278386;0.004288562873880396;139.0;0.12914059403077013;0.06445086904541174;0.004162313543391463;142.0;0.12991894162066506;0.06372846264795089;0.004069208268550935;145.0;0.1313564459740926;0.062269236894919394;0.0038858569572740587;156.0;0.1340866834185749;0.06392806221908633;0.004096681421586891;133.0;0.126494071537621;0.10176576432788094;0.010384778190230705;151.0;0.17066767352779516;0.09965892630291702;0.009956489672704415;164.0;0.16768119516899666;0.0999756284008504;0.010020219025335904;166.0;0.1678448944468292;0.09898778033277136;0.00982573628848743;165.0;0.16664447447528666;0.09675534478982781;0.009386171355848778;165.0;0.16537072328502384;0.09307921050679253;0.00868792829495193;160.0;0.16254443568668436;0.09120729351009729;0.008342614145976417;160.0;0.16069118802029272;0.10243975649902513;0.010522888730564617;146.0;0.1735129717307772;0.09528575468600099;0.009107100850483826;150.0;0.15803296293338748;0.09990600792770643;0.010011649556351566;150.0;0.15853714537781463;0.10686633786176103;0.011456780866056114;142.0;0.16165344001085458;0.11257551443941834;0.012712354441916839;152.0;0.16729735786793815;0.11206970188646799;0.012599147452326948;155.0;0.1676007108250605;0.11283984980425003;0.012771730552278862;152.0;0.16795000464392043;0.11251331943466455;0.012699037105018846;153.0;0.1675282858102007;0.09507817966258006;0.009068435192618327;154.0;0.156867832124969
0.08790072345373752;0.007749912772953333;164.0;0.17077412339717968;12.0;0.08589559982484461;0.007399095534622539;153.0;0.1681572104293954;0.08296620691823924;0.006902789583754532;151.0;0.16389543931985381;0.0809971112936916;0.006578662070496828;150.0;0.16095518748588067;0.07899206882648649;0.006256973103519915;144.0;0.1585124022094886;0.07557680680633613;0.005727606256645065;147.0;0.1554161296314602;0.07253061061334841;0.005275312752539765;149.0;0.15285348912244937;0.07568541140965795;0.005745647642063372;171.0;0.16328833131318288;0.08484638041587131;0.007216214665546871;145.0;0.15150904389872832;0.0862011820958519;0.00744782261759773;140.0;0.15319680309813116;0.08703349050163485;0.0075918946874938475;137.0;0.15673280712682663;0.08763428774245514;0.007697293253572601;144.0;0.15842860767271083;0.08668005179000014;0.007527822197774984;146.0;0.15815837625487292;0.08327204284061422;0.0069464821643869246;149.0;0.1565389955556822;0.0781249649169469;0.006115460755211327;150.0;0.15551621423292053;0.07428647338819316;0.005532376720959234;149.0;0.1457984445178601;0.09000647348407337;0.00812386537112873;143.0;0.17847667627092906;0.09130387138600966;0.008360568668932112;151.0;0.17465385132146236;0.09158317207274735;0.008411932082638523;158.0;0.17252475430177644;0.08892862072418056;0.007929041719485443;156.0;0.16963289002879717;0.08561383856845417;0.007349737479032388;154.0;0.16723243879877833;0.08084086756405481;0.006553117743618491;155.0;0.16402380716068743;0.07771877906600146;0.006056424941927088;155.0;0.16182455389042394;0.09372536254787503;0.008812492932181826;140.0;0.1824675946894808;0.07870991070872337;0.006211734984110967;146.0;0.16124940768323123;0.08442996001996499;0.0071495299370713025;151.0;0.1636284548615886;0.09262639259935598;0.008606860159933427;146.0;0.16631102463054467;0.0915424591833878;0.008404527285828092;156.0;0.16585853265025335;0.09131750389317547;0.008363694473920397;155.0;0.16589758025164164;0.09164708004535772;0.008424599704940656;156.0;0.165992120929817;0.091859035300743;0.008462721338898293;156.0;0.16641319962840645;0.07729582167561055;0.0059884123179996095;148.0;0.1601700641112858
0.06718091434593361;0.0045275266930225235;166.0;0.15870572322603343;12.0;0.06402037321341872;0.004111055365484425;158.0;0.1531928429657518;0.06350557056931797;0.004044706893808644;155.0;0.14756794571064075;0.06407973403463973;0.004118368735630923;149.0;0.14500219247404295;0.06410715158975873;0.004121786191683808;149.0;0.14367844730136356;0.0625900236731042;0.003929125143267737;151.0;0.14174960745293283;0.061489318564091504;0.00379267126879758;153.0;0.1405815865260857;0.06713249720154521;0.004521520738947646;167.0;0.15801622468947288;0.08445651264506715;0.007155159181814355;159.0;0.1511640105174994;0.08557005317107863;0.007346172883705458;158.0;0.1545073534298929;0.0879128098424558;0.007753463598109862;158.0;0.15855054592277468;0.08850702850682222;0.007859148323404263;164.0;0.15937465249682817;0.08807021428973971;0.007781760129542528;158.0;0.15874116227437823;0.08449554274566906;0.007162832801936935;160.0;0.15631197794019047;0.0772677612779291;0.0059897866014126016;156.0;0.155061621848275;0.07411280489690354;0.005509497514319004;163.0;0.14223715740074674;0.08798678717030342;0.007765652969550285;153.0;0.18677028453810723;0.08928302875837922;0.007996925041933592;154.0;0.1788200590741229;0.08996077946583214;0.008118751041187146;159.0;0.17469898860127225;0.08766527284131181;0.007710263016225192;155.0;0.17190219448316887;0.08388337060866845;0.007059422057524689;150.0;0.16935387244553277;0.07933200301353775;0.006314108809268834;155.0;0.16633853068145282;0.07601543449142767;0.0057972038375254465;155.0;0.16474702592708038;0.09801683450680553;0.009637476478872203;154.0;0.19431124297057145;0.07223686931086049;0.005235251059758335;151.0;0.1632526994810598;0.07490993690684136;0.005629732129010386;151.0;0.16450788215161713;0.08062156970769327;0.00651991015176768;153.0;0.16553212623221208;0.07800441793972052;0.006103459405646801;160.0;0.16575320265033697;0.07759380243000623;0.006039587737982561;159.0;0.16523399547834525;0.07814220583863281;0.0061245001681042585;161.0;0.1654999445066071;0.07828770288362108;0.006147385714765636;161.0;0.1660575102372926;0.06849653459223577;0.004707129806363175;149.0;0.162225818034052
0.0787118015072285;0.006212588843486518;158.0;0.16772174464720965;12.0;0.07137921754281316;0.005110524467592794;155.0;0.15942062036548785;0.06699497942681054;0.004502461756219539;156.0;0.15184940257215182;0.0650402067806139;0.004243576838628431;152.0;0.14736701823478446;0.06374768088507213;0.004076880441840391;154.0;0.14493791866875574;0.062022918512490845;0.003859113206954786;155.0;0.1419362932102567;0.06134796814133098;0.0037751294055411518;156.0;0.1409462303295173;0.07989895012705384;0.006401485462198953;156.0;0.166405912638725;0.08758768564807626;0.007670966788244353;159.0;0.15475942524312308;0.08809908122156393;0.007768003032955908;162.0;0.15754224719603538;0.0888022302667395;0.007898630575846192;164.0;0.15840439827305655;0.08884664523015973;0.007904137653899612;162.0;0.15989319612078626;0.09109330652006147;0.008312291661063603;155.0;0.16258700475675922;0.0917472429257126;0.008433588101016583;150.0;0.16432653801374883;0.08726168676679216;0.007628608777541146;149.0;0.16586888342475734;0.07638591385069488;0.00583636975538377;163.0;0.14659550619313322;0.11130040192037355;0.012426671812467526;152.0;0.19821712137820954;0.10235560047207921;0.010506848961341147;156.0;0.18897964769182815;0.10043133283665251;0.010114667350049372;157.0;0.18545702584440482;0.09797447516038092;0.009625034886216884;157.0;0.18272833760467394;0.09453206933252142;0.008961701410951688;156.0;0.18040938751248545;0.090173036920064;0.008154013460952254;157.0;0.1767124788916212;0.08688963525441804;0.007572528079254172;154.0;0.17460319946599798;0.114493426925751;0.013149691558105024;156.0;0.2024918766905004;0.08355651746862455;0.007004347687091063;154.0;0.17324263641930954;0.08646296717970045;0.007500530578978493;150.0;0.17369376613919382;0.09146043758055392;0.00839097311945593;148.0;0.1753390459832198;0.09310780669312595;0.008697373579322643;153.0;0.17965457465426748;0.09277576832976082;0.008635618893604324;152.0;0.179042324940259;0.09344432676693476;0.008760533549939376;153.0;0.1793535222477873;0.09318993358977413;0.008712719099656801;154.0;0.17971208984286283;0.08073802177184963;0.0065395784158513185;151.0;0.17143977218574397
0.09647632151453872;0.009329181963822734;157.0;0.18001401375110818;12.0;0.08801064054854217;0.007763429294511276;164.0;0.17540912945809148;0.08330576838686937;0.006954133243396266;161.0;0.17112761833910056;0.08232286068366856;0.006791551202705707;159.0;0.1693716512340358;0.08124011334583868;0.006614996349971755;156.0;0.16791402402742792;0.07960145076823451;0.006349809737333777;156.0;0.16562217359502307;0.07856266997472403;0.006184787277933262;153.0;0.16489728700982212;0.09401727410284721;0.008862601978619038;166.0;0.1809040223313991;0.10017798091301834;0.010049792709551973;153.0;0.16686503928885;0.09625505860452949;0.00927875497741836;156.0;0.16609632807053532;0.09261796370073895;0.008586801622052935;154.0;0.16587571148581862;0.09126205346873896;0.008338978884240993;158.0;0.16969982217207394;0.08989874637234635;0.008094722616798875;157.0;0.1713404432154353;0.08891619067621549;0.007920221369158148;155.0;0.17151643859254315;0.08658844313410743;0.007510280840956059;158.0;0.1730308232819585;0.09021162750211288;0.008147462041933139;152.0;0.1627502066655934;0.12686299471849918;0.01614673866608371;150.0;0.21206528414704076;0.11838729891797425;0.014061211438556886;154.0;0.20371368052864355;0.1155036182611152;0.013384684002672832;152.0;0.19980943261094292;0.11196075150481716;0.012575979812630363;154.0;0.19582107583758177;0.10785289665904443;0.01166993510732563;158.0;0.19287872313044394;0.10265400828212462;0.010570950900963307;157.0;0.18914131671648401;0.09897291982770733;0.009827190721157198;154.0;0.18668887856117264;0.12887293482924872;0.016662000598082333;156.0;0.21532995366658642;0.10001222813575264;0.010031475829849791;153.0;0.18449337278275196;0.10632165266805707;0.01133726117691606;151.0;0.18620920236794308;0.11411797965596314;0.013060656000853786;151.0;0.1886516640901775;0.11621582849780054;0.013543153240393185;151.0;0.19134066211380618;0.11584064248800599;0.013458104276856465;149.0;0.19092022385099072;0.1166236706032954;0.013642383487179208;150.0;0.1913300151546196;0.11624748138702498;0.013553164125890577;150.0;0.1914822794485149;0.0996594891727224;0.009961589936358092;151.0;0.18397198770733042
0.12088048233500565;0.014657945434177172;155.0;0.20743627656533997;12.0;0.11131276686033337;0.012429338918927299;162.0;0.2003235865958929;0.10340040234322474;0.010725808852732773;162.0;0.19096456417218374;0.10020093479943835;0.010071593019916964;162.0;0.18593095820627842;0.09798483943310414;0.009630825329180982;159.0;0.18350307450109063;0.09520777048955714;0.009091510503312894;157.0;0.18141348901554458;0.09334042835846393;0.008738405018370515;157.0;0.18090540246994596;0.11606957813746506;0.013516166376402421;172.0;0.20844783202381106;0.1180555927348608;0.01394891236650483;143.0;0.18803004003536355;0.1135903781051024;0.012916906537351032;146.0;0.18594846377982271;0.10728066785453368;0.011530205876872176;145.0;0.18401677245429854;0.10117893031670182;0.010259000289129145;150.0;0.18429217702797057;0.09525912088889436;0.009100212264721672;153.0;0.18321326422331258;0.09415549975619716;0.00889277988693418;163.0;0.18350764712271564;0.09585233082914363;0.009217685467559227;167.0;0.188637364421219;0.10659122829269654;0.011377852409112026;135.0;0.18122453545623918;0.12064840969014567;0.014598290056033195;153.0;0.21495371549762637;0.11689052175329422;0.013706759355135234;156.0;0.20785442264170234;0.11613041647842313;0.013529713365046572;153.0;0.2057478730912105;0.11369840622205576;0.012969464312101423;153.0;0.2028079034763694;0.11057232665308842;0.012266063817545398;154.0;0.20035394057359174;0.10671567805328651;0.011424536361132309;154.0;0.19753620978540978;0.10484423695604121;0.011027714133868561;148.0;0.19585354069183608;0.13144124962632295;0.017329386056265245;151.0;0.2227051789414625;0.11163227014642102;0.012501933442853127;156.0;0.19249305441821582;0.12297140052394243;0.015171159642573087;153.0;0.19535215731722363;0.1397661770151317;0.019597160472457704;162.0;0.20095106023691736;0.13800434503644987;0.01910640030596743;159.0;0.20288488395769516;0.13739139690690486;0.018937621350675064;156.0;0.20245965689130674;0.13824885427008315;0.019174948139526624;159.0;0.20306799262700084;0.13798934002409693;0.01910302712020081;159.0;0.20308236435717109;0.11196394716330875;0.012576511288504729;155.0;0.19191775851138398
0.11377772568841761;0.01298776742186448;153.0;0.21242717360974075;12.0;0.10382279719770036;0.01081366202413601;157.0;0.20342019263944613;0.0950117581485154;0.009056057705275185;162.0;0.19044487242183436;0.09091488412506525;0.008289299191104322;158.0;0.18347152276576126;0.08836783143770409;0.00783156430546024;157.0;0.18030841665589203;0.08530056573856935;0.007296481782678491;156.0;0.17792366338431395;0.08305202223402289;0.006917007980196113;158.0;0.17713759069983906;0.11193260989233339;0.012569547265076452;168.0;0.2114965113376353;0.12459440836320237;0.015569544157473207;148.0;0.19327529327274265;0.11426558493506092;0.013095267368471875;149.0;0.18968556691179436;0.10304139470066435;0.010648546419310172;157.0;0.18883864192204117;0.09492335975338174;0.009035446456424755;161.0;0.1881534360628001;0.09357665850791755;0.008783335190262056;161.0;0.18880827232618866;0.09592918009334205;0.009229122071752874;154.0;0.19058668368968007;0.09911364282632591;0.009854182645730876;155.0;0.19647969605199003;0.11337842008008386;0.012887053238874588;139.0;0.1855718908619242;0.13642296372550194;0.018656255176412704;149.0;0.2280232092951871;0.1305299832795148;0.017081018481410457;151.0;0.2238077747495272;0.12912850327939243;0.016711916310184958;151.0;0.22235336880053735;0.12678759896856057;0.01611474385422171;151.0;0.21979651864232877;0.12459542450095175;0.015558612629099664;146.0;0.21828424161611834;0.12278498678081282;0.015111304067312628;147.0;0.21607647467383415;0.12256593132092573;0.015056698669473957;142.0;0.21512068590100183;0.14514249288605013;0.02111871467921948;148.0;0.23648369846895664;0.13316711834272255;0.017770770317176127;152.0;0.21484276158636686;0.14315292316149228;0.02053427285293803;147.0;0.217636222142912;0.1585334663486847;0.025196107751337016;154.0;0.22444935328761678;0.14882542992715733;0.02220355001535698;156.0;0.22127944576108347;0.14839894242465232;0.022072986418856654;154.0;0.22086822219476013;0.14930981568424068;0.022345971602085995;156.0;0.2216858738478285;0.14902581569168516;0.022257992719189844;154.0;0.22146111088094358;0.13091784639292595;0.01717017575581681;149.0;0.21216939906254687
0.10798144510934367;0.011683379084765886;151.0;0.20937874368516793;12.0;0.09822188879632775;0.00966503754955085;157.0;0.20072167244572103;0.09086094436868777;0.008264851588223059;161.0;0.19034257843554983;0.08832397983732007;0.007807834931366964;158.0;0.18425190898573682;0.08713697646430708;0.007599315110930451;152.0;0.18165049567326583;0.08477292567691101;0.007191438718085295;154.0;0.17902068872679208;0.08269136683746343;0.006842261357777648;155.0;0.1781716183201473;0.10491412146436009;0.011036363700167636;161.0;0.20854340668720595;0.11806843155979735;0.013957789353716412;157.0;0.1922598050187843;0.10502738977030647;0.01105055733756446;149.0;0.18863035016821184;0.09550531388217304;0.009141123324523166;159.0;0.18916245579800314;0.08893620088695849;0.007927983996664691;166.0;0.18955462038722984;0.08713568134341129;0.007613272969249897;167.0;0.189052975018529;0.08900764749470229;0.007947043832155942;153.0;0.19115694286989773;0.09321730665427923;0.008717414263543808;150.0;0.19763546356970146;0.11152481618308592;0.012456155242422667;148.0;0.18502441166498984;0.15661359141088907;0.024571404114179022;146.0;0.24568839784120214;0.15255116969192342;0.023320708243397003;144.0;0.24169397620146907;0.1515698125583339;0.023019104559079785;144.0;0.23889109051100363;0.1489736901304447;0.02224456617623339;144.0;0.23566602390331587;0.14537880969373054;0.02118362436114658;141.0;0.2334731563989512;0.14139472759878216;0.020036741908388986;144.0;0.2306465375600296;0.13878692021196926;0.01930604191432831;145.0;0.22929315122454824;0.16150867568133323;0.026134315554606626;147.0;0.25076189830348683;0.14547825781617285;0.02121292933979079;145.0;0.23045070664513745;0.1522047469065322;0.02321793268814893;145.0;0.2323124578975447;0.1646909054658615;0.027177252891245996;146.0;0.23685427746089616;0.1599294167622696;0.025607539325105802;142.0;0.23372657906207023;0.15967553171845458;0.02552501050870331;141.0;0.23344760793265815;0.16066099860250874;0.02584266786692925;141.0;0.23434917629018515;0.16044507485915602;0.025776011325518735;139.0;0.23395824855886976;0.14285666335514693;0.020451698824499164;142.0;0.2274753803448146
0.09389375098131904;0.00884118606831334;136.0;0.17522627371596833;12.0;0.08671188780985048;0.007542236420327255;141.0;0.1665953274672203;0.08128470778045752;0.006627555382176103;145.0;0.15871728633035487;0.07895779195482136;0.006254508476792806;147.0;0.1524058980446171;0.0780179455985703;0.006106376592024901;141.0;0.14984348563722732;0.07619294079650991;0.005824242851410745;146.0;0.14782135676502678;0.07413603042898147;0.005514052329258779;147.0;0.14688141288161644;0.08837279315063747;0.007833306753465493;147.0;0.17149174179367055;0.09401028933085542;0.008866664926044276;153.0;0.16092841450288137;0.08762366009964384;0.007700167853893213;144.0;0.1585919788975434;0.0825885944045125;0.006839855967401285;138.0;0.15557083136909697;0.0770326029580744;0.005952361015299393;141.0;0.15276787364507577;0.07216842561194099;0.005224480635575663;149.0;0.15033656146046823;0.07154158859579404;0.005134001810524;151.0;0.15369795193887287;0.07528040320333193;0.0056846664859425975;155.0;0.16025341703471008;0.08812951802919068;0.007792141933267824;145.0;0.15197602044770728;0.11695975731821398;0.013721659018040167;157.0;0.1859622989504099;0.11617625559671038;0.013538364521876685;155.0;0.1821174955852344;0.11618824134955757;0.013541402998972083;152.0;0.18026682786925824;0.11442548657323726;0.013133348846743238;150.0;0.17837358726154773;0.11112735546957292;0.012387226713642367;148.0;0.1762885700752135;0.10661890276017248;0.011403617158093623;150.0;0.1731130768756428;0.10363603398669043;0.010773080571540907;151.0;0.1719547825315084;0.12118062148632266;0.014728798209838079;153.0;0.189298044040502;0.11049672759397193;0.012247160178240473;141.0;0.17471449453845275;0.12010192918309409;0.014469976584284915;147.0;0.17773968837733947;0.13779724581994438;0.01904958058402943;151.0;0.18273343959692415;0.1366040726444567;0.01872165390687315;146.0;0.18276138267685832;0.1363990959861844;0.01866539923413705;146.0;0.1823892562650003;0.13715732610086023;0.018873533215675888;147.0;0.1829783365201669;0.1370524625374834;0.018843778763316655;147.0;0.18282633887817168;0.10978377692961398;0.012087411588341703;142.0;0.173613474141881
0.05129373122156457;0.0026263036767661344;144.0;0.12402679120222646;12.0;0.04803337125212328;0.0023048896237201242;152.0;0.11728331641894733;0.0459727841238719;0.0021097372313369682;158.0;0.11233740324063689;0.04473279076096328;0.0019978270735912596;164.0;0.10837527151411148;0.04399092313251737;0.0019314405216988837;161.0;0.10720442189512404;0.04319615092222983;0.001863317643833689;161.0;0.10569832695166144;0.042160694055284956;0.0017742975926316182;158.0;0.10496752222684527;0.0499498264689169;0.0024931236910793763;151.0;0.12366983336704906;0.06621465356518319;0.004390928627214066;152.0;0.12028432431422799;0.06127899101910698;0.003756974103480114;153.0;0.11780600605961769;0.053566081103197744;0.002867236151739064;148.0;0.11053950959261698;0.046649811929981744;0.0021743026514898013;145.0;0.10466247638789715;0.04368212878585859;0.0019065718229403273;147.0;0.10326296217529846;0.0426035412172467;0.0018142278026505442;156.0;0.10595866923394964;0.044321203930235274;0.0019646481313906955;162.0;0.11060732436457794;0.060244811801920796;0.003632587622637059;148.0;0.11435346279893417;0.06410252235933075;0.004120998288706255;176.0;0.1261265606963738;0.06482012950600849;0.004213460188865604;179.0;0.12194810427391174;0.06604542833558501;0.0043740306122108455;180.0;0.12079266515160048;0.06633086130138925;0.00441141169844176;182.0;0.12043493614232605;0.06532913485887108;0.00427968315688126;181.0;0.11889852079026542;0.06487285807818635;0.004220892773250082;182.0;0.11775211735580858;0.06487699121019276;0.004220707489874507;182.0;0.11811571657087878;0.06742806432527593;0.004558008560514061;161.0;0.13393399876708362;0.07718954116663405;0.005975097110008014;170.0;0.12398643971134432;0.08803941220554867;0.00777213659715833;172.0;0.12818740668668532;0.1035829335962678;0.010752693203883553;174.0;0.13349179500183844;0.09723361284274201;0.009475805602614974;178.0;0.13144217842352215;0.09676922105713293;0.00938688444405585;177.0;0.13096587591188477;0.09759583033476137;0.00954677557973532;178.0;0.13132275015379244;0.09729504168294503;0.00948766539092981;177.0;0.13137383643321882;0.07685380369574886;0.005921757109287773;171.0;0.1235460911329983
0.06075088288044184;0.0037015025537938955;145.0;0.14795859169093528;12.0;0.05874196529996556;0.003460446670559204;153.0;0.14126275017487464;0.05776127229987345;0.0033458679581022054;159.0;0.13747652778294198;0.05695447653903412;0.0032526855810914787;168.0;0.1350472447923642;0.05592478674712087;0.003136522287984359;166.0;0.13356684655081189;0.05454570726397795;0.0029840017557969324;164.0;0.1324424761928346;0.052570560710709105;0.0027716551696645208;164.0;0.13048080865757977;0.06293074277085418;0.003972512002077033;148.0;0.14942655268346391;0.06467055944825946;0.004190331960508531;150.0;0.14007729681021697;0.06241195696725424;0.0039003455180510902;156.0;0.13876689280424917;0.06118947501767824;0.00374839955128989;152.0;0.13488022687043524;0.059156827361810126;0.0035011287067964873;147.0;0.1322802023450364;0.05539810320160301;0.0030714622898410896;143.0;0.13195243052668365;0.05441508520950268;0.002967008688805007;156.0;0.13424484601244427;0.05685180215696347;0.0032401421792878395;157.0;0.1387477896808098;0.06058712760579699;0.0036784347784833667;150.0;0.13382007882127628;0.09604123294541127;0.009253795279151785;167.0;0.1597484256747699;0.09600139564829534;0.009245956456253951;172.0;0.15507197106999632;0.09693343219667021;0.009425889362556875;175.0;0.15380533737553664;0.09673689005709776;0.00938683110438787;179.0;0.15241240621834748;0.09485458084081182;0.009025026147319265;179.0;0.15034325333889026;0.09322621823812927;0.008716751838079378;180.0;0.14943510245181427;0.09221698756560556;0.008529396717313521;178.0;0.14825297071869376;0.09804655588470053;0.009643662018515665;157.0;0.16935635623881362;0.09552323899825914;0.00915166529280529;174.0;0.14850064745313393;0.10137461096361233;0.010308046268744785;170.0;0.1502159288204388;0.11017228930831137;0.012174858477448947;166.0;0.1527280742260964;0.11065036729601087;0.012280260310322694;169.0;0.15837668910989378;0.1104003921437154;0.012225444706321203;169.0;0.1590219455074689;0.11109172791303348;0.012378553703260874;169.0;0.15939036346695024;0.11086081305309933;0.012326631245015178;168.0;0.15871776197079596;0.09513701242770503;0.009076738662788648;176.0;0.14785569217837236
0.08165990441075023;0.006689760096621727;142.0;0.17458867474044673;12.0;0.07338529111268102;0.005402782591953025;138.0;0.16308481439770425;0.06854351572088264;0.004713503791923023;137.0;0.15468392585927102;0.06683418630213446;0.004480824007704527;147.0;0.15102017878469648;0.06592315668404554;0.004359807892684621;147.0;0.1495883742998419;0.06457446994073535;0.004183081230637856;150.0;0.14965730512287087;0.06308674058188134;0.003992301036320365;150.0;0.14798765492396454;0.08448885480025335;0.007158020868537918;147.0;0.17581133130627188;0.08323324399599408;0.00694592991470171;140.0;0.16177058030444671;0.08057870379815603;0.006509083754548175;146.0;0.15906825687414822;0.08055530787497187;0.006506269285601429;139.0;0.1568574543173723;0.07777341662878269;0.006062099427329426;132.0;0.1558866757430826;0.07279786338598444;0.005310457673187755;139.0;0.15603160747637915;0.0718822499195481;0.005176778087329443;153.0;0.15860393130262324;0.07651448988821635;0.005864948353390896;156.0;0.16355650118667173;0.07531376445208374;0.005684597231247555;143.0;0.15243587596835143;0.11394688635760876;0.01302601488186873;144.0;0.1781348115475839;0.10963659266520386;0.012059447325713221;148.0;0.1753224501696239;0.10816415962634844;0.011737690039299097;150.0;0.17477203775339073;0.10582558756714774;0.011235541776677757;155.0;0.17242129531486816;0.10267807937733815;0.01057712700268914;157.0;0.1702730610114576;0.09842988088412752;0.009720141920883022;150.0;0.1679848098326968;0.09608363550355871;0.009262263628112577;148.0;0.1659007432835076;0.11372854875804778;0.012975109443653019;149.0;0.18417995023433145;0.09357412131727917;0.008783583873314594;150.0;0.16341575626068924;0.0972878843877274;0.009493391618293079;148.0;0.164219178923846;0.10299438507854806;0.010636353449512668;146.0;0.16551584711000128;0.1062722478053762;0.011321836101241873;144.0;0.1715019009133389;0.10634323996989736;0.011336491593404361;145.0;0.17239816444407052;0.10666908758897899;0.011404485064799562;145.0;0.17266647220271444;0.10646998538969865;0.01136170095435116;144.0;0.17217165486955835;0.09296468537079756;0.008669008407648317;150.0;0.16214285035936993
0.085873247601972;0.007389330781091359;154.0;0.18995158267178125;12.0;0.07509169805933227;0.005649303510678265;141.0;0.17806425551658833;0.06892058602861355;0.004758978335019744;135.0;0.16798574650863085;0.06881700244368016;0.004744812658721463;144.0;0.16363385423224244;0.06975519050261877;0.004874973359813934;147.0;0.16226304664049127;0.06943668504166264;0.004830347048244585;150.0;0.1619988723060549;0.0685389036301168;0.004707138606065316;149.0;0.1611045996580776;0.08438139979191014;0.007137942928575529;145.0;0.18460606539393445;0.08306942799126359;0.0069016851508099586;136.0;0.16990351430685458;0.08067959764328558;0.006506996687024905;135.0;0.16799661479688122;0.08094051553518469;0.006548096849927597;131.0;0.16720581804962203;0.0788558617195296;0.006215065385091331;136.0;0.16888528912748685;0.07344069987575673;0.00539483026599262;142.0;0.16956254235557774;0.06998107677764849;0.0049026787747479955;152.0;0.16924587507451946;0.07455715581665197;0.005568825924380959;152.0;0.17270557121350985;0.07439155008933913;0.005542025196676894;141.0;0.16228507381864732;0.11566508703042246;0.013419184639630922;144.0;0.19837603541935636;0.11017369874404047;0.012174580114542657;143.0;0.19222136004681942;0.10888486441891615;0.011892078625692321;146.0;0.19055465289977153;0.1064202841318432;0.011360863058286074;150.0;0.1882069055660987;0.1027913455442279;0.010599203758935588;152.0;0.18532731901412317;0.09871957474696905;0.009777283198743953;145.0;0.1821123415537025;0.09614056252542275;0.00927294428541943;144.0;0.1801971521102733;0.11399432985616419;0.013036482569105256;144.0;0.2053779531085892;0.09362440063450621;0.008793368907299856;145.0;0.17695684638679166;0.09479611198404436;0.00901348517704173;143.0;0.1772308289529746;0.09764614770641075;0.009562481281098626;140.0;0.17879322577849724;0.0962067670562921;0.009283916562525942;143.0;0.1804505276007333;0.09593581779095442;0.009231840310580563;142.0;0.18052578869279456;0.09639970073568142;0.009318914929801952;142.0;0.18072596641813027;0.09610750919634083;0.009264146691227161;140.0;0.18090211859159877;0.09179175055979438;0.00845212703946755;145.0;0.17507509243101652
0.08321163764433484;0.006946799396183807;159.0;0.18780662007142265;12.0;0.07615734504444054;0.005818682900122763;154.0;0.17933806662061733;0.07466353763997471;0.005592800264798227;153.0;0.17329904060876297;0.07702816036937372;0.005951744564366009;153.0;0.17086765710919832;0.07849812685651408;0.006181164480447058;155.0;0.169906000165614;0.07778186626639667;0.0060678766392155995;153.0;0.16924526870239606;0.07614124822822037;0.0058150580618797805;155.0;0.1685204617312737;0.07741095215858143;0.006009655019545676;149.0;0.1787107046601769;0.09119498550332547;0.008333499835706058;156.0;0.17576728867453006;0.09068628212185398;0.008246629791149028;149.0;0.17621300459586994;0.0919923188952874;0.008488222931872229;144.0;0.17834374815006415;0.08973570386967245;0.008076329009702586;158.0;0.18133833428668128;0.08182733627006777;0.006716281560283535;162.0;0.17988344914580243;0.07499943153263115;0.0056406374057376965;167.0;0.17656002035132573;0.07594006660820336;0.00578137590544937;160.0;0.1787310435651836;0.07918317579961573;0.006285611907661147;161.0;0.16798874970348157;0.11075215778834481;0.0123062106742326;146.0;0.20684149966477014;0.10559506207045244;0.011185299859567975;142.0;0.1994879727098836;0.1045561590281628;0.01096576220944433;145.0;0.19685846351241676;0.10276124265742155;0.010591883527856567;144.0;0.19509552399054853;0.0998339429669329;0.009996390261689728;146.0;0.19223970801924736;0.09668261481464048;0.009375593947904869;142.0;0.1891230105805019;0.0946504642790997;0.008986417017269191;140.0;0.18687207905294476;0.10971803132408874;0.012076787190487829;140.0;0.21435324426136534;0.09408260976843286;0.00887982813145243;145.0;0.18168263385951536;0.09483201306004461;0.009021996490393414;140.0;0.18206466739804766;0.09800575298546646;0.009636246411585591;140.0;0.18373252806417678;0.09859255050021559;0.009752401997192265;144.0;0.1894847315614982;0.09836280599949963;0.009706811757505311;143.0;0.18924630498659634;0.09912690880868495;0.009858138323013575;143.0;0.18970494567085328;0.09863524678139185;0.009760829322331202;142.0;0.18982983498144165;0.0920832038437472;0.00850585409406128;147.0;0.18018164932879466
0.09014252858544168;0.008151620551851752;156.0;0.19823977608453408;12.0;0.08433088912895309;0.007132627276256083;154.0;0.18791995180494864;0.08155841441348011;0.006667887415728204;159.0;0.1773766742516279;0.08137947005823498;0.006637078648804523;159.0;0.17251326588393276;0.08089322945688386;0.006557737494529314;161.0;0.17046518196405377;0.07940746107965416;0.006319551963272325;159.0;0.16922532916742936;0.0772902892224143;0.0059859625221551065;161.0;0.16784634339088528;0.0857809207725938;0.007382168391967367;150.0;0.190406591382796;0.1017858474992918;0.010393354716652438;157.0;0.18519038238756094;0.10085640687253729;0.010202639040961648;152.0;0.18264434098746984;0.1035341276851212;0.010750455694170989;159.0;0.18282494386842493;0.10063505187532489;0.010156155597846642;160.0;0.18286902301953145;0.09148244655822195;0.008392402211337833;165.0;0.18093974368927568;0.0855931689938832;0.0073477646909269004;169.0;0.1825125373889165;0.08625508952438067;0.0074637022017643205;165.0;0.1873904962444118;0.08642427831450217;0.0074917573017716;169.0;0.17496228310356965;0.10883718660846212;0.011878724323144402;154.0;0.20494987594968822;0.10769447988559337;0.011632525633814639;145.0;0.20043000624976348;0.10899030806692035;0.011915547538709704;143.0;0.19954740589534786;0.10753250820026246;0.011598527429059756;144.0;0.198084875135313;0.10388019063444823;0.010824619835391756;144.0;0.19608019955471231;0.09882253380665468;0.009796080601262686;142.0;0.19302688903566315;0.09516001039590431;0.009082814013427216;142.0;0.19069285670748246;0.11814678450877762;0.013999360690400846;147.0;0.21516768038533032;0.08994884650655542;0.008114847187699677;151.0;0.18588016305427338;0.08993967360524838;0.008111916829470735;147.0;0.18632062510827246;0.09237263491273565;0.008556562370171706;149.0;0.18772909886027095;0.0925992922005016;0.008599039370938146;145.0;0.1951270103410966;0.09241046333362542;0.008563170736013296;147.0;0.19490000986795306;0.09302180840119288;0.008677630593563142;146.0;0.1954376474388324;0.0927165352733798;0.008619687302736122;145.0;0.19544143783302206;0.08869153488277924;0.00788950116801248;150.0;0.18485397770224266
0.1000302287015771;0.010038716392487816;152.0;0.2012447148334497;12.0;0.09246842345592686;0.008577952672607829;150.0;0.18885894087392474;0.0850942324642953;0.00726399928048663;153.0;0.17454587399339117;0.08176598299336241;0.006707134867494531;152.0;0.1679188412471628;0.0799020752648675;0.0064051393084815925;157.0;0.1651025472522078;0.07771430105596802;0.006059052589077398;156.0;0.16271433922769873;0.07545950244653525;0.00571275637636514;156.0;0.16035065129214815;0.09482497178622469;0.00902017910792562;152.0;0.19142519296665048;0.09479881916214489;0.0090113675885298;133.0;0.17300503992380034;0.09297920029907872;0.00867238796232878;134.0;0.17168465367716054;0.09456749392347549;0.008972179727013798;147.0;0.17287921010463975;0.09362582135135486;0.008794415548422783;144.0;0.17151350083681602;0.08745222725814297;0.007672958950802279;148.0;0.1709362133823209;0.08411873196233315;0.007099104239576037;157.0;0.17477958009737335;0.0857128762874243;0.007370642683261864;151.0;0.17969690002046412;0.08369420678349922;0.00702617221061228;139.0;0.16300987695597852;0.1193065699795783;0.014281470601909834;165.0;0.2204137344012757;0.12146984888902874;0.014801486476526404;152.0;0.2130637668147963;0.12512876110152454;0.01570664452107132;148.0;0.21122157957814083;0.12544295783585163;0.015782129763667063;148.0;0.20995264418650614;0.12197226815754662;0.014922399053382128;147.0;0.20833447169950642;0.11713376227123937;0.013761601830124542;150.0;0.2051221899320593;0.11345505334561795;0.012912340949727548;154.0;0.2036665824254052;0.13005107762371895;0.016969413342805037;159.0;0.22917076152263557;0.11052592200295948;0.012254867625375135;152.0;0.20038614803053917;0.1163095116791141;0.013569581587707838;150.0;0.20191861977530184;0.1274446139313688;0.016286014315086708;150.0;0.20481474901870636;0.12475330158347575;0.015606786838482042;147.0;0.20795233091856213;0.12430513988431872;0.015494350967536142;150.0;0.20791551178054932;0.1252168504022679;0.015721692742366046;149.0;0.20844822204655186;0.12502214276155887;0.01567316207922828;148.0;0.20856265664367052;0.10915445218355307;0.011952683835046362;152.0;0.19860557897224443
0.10635989863622027;0.0113499889837866;150.0;0.19167297634794955;12.0;0.09532663586323349;0.009116787153809744;158.0;0.17982066751916645;0.08438144395242904;0.007143257130988061;152.0;0.16607119180182728;0.07971086989180942;0.006373667836046322;151.0;0.16047904872553287;0.07761522447241252;0.006041731127891219;153.0;0.15749873074171028;0.0746746533211012;0.005592609894048255;152.0;0.15505525864115371;0.07235652800340954;0.00524929566859058;151.0;0.15367336767745277;0.09284322910186721;0.00864861674921333;159.0;0.18032458690987296;0.08831678059151496;0.007819828256618486;132.0;0.15822550303606003;0.08290530332408637;0.00689122375285152;135.0;0.15897685137063686;0.08131958878898204;0.00663021771972346;143.0;0.1638508136903353;0.08173004539408645;0.006697250005023564;142.0;0.16484266534629666;0.07792120809158697;0.006089371206388785;144.0;0.16510484787473934;0.07561385588075054;0.0057358845220790685;152.0;0.16602746167781146;0.07788930032843572;0.006087043194536752;145.0;0.16872947043757616;0.08498636358291481;0.007239084578749217;123.0;0.15459727685055444;0.12282404770229453;0.015135456044395737;165.0;0.22827334325656407;0.12115672920782027;0.014726714592757373;157.0;0.2180677124057958;0.12366209356803486;0.015341717445577649;153.0;0.21493904715375428;0.12396548042045154;0.015415315201050588;152.0;0.21286949001533284;0.12138442913511024;0.014780974085849217;152.0;0.21115713388813037;0.11722739561045255;0.013784478619946847;154.0;0.20784188716062646;0.11396606709515532;0.013028509891886137;154.0;0.20627839870356782;0.13135875960400006;0.017311827443932105;159.0;0.23584847175321255;0.11401473062879562;0.013037417094441521;153.0;0.20314051560796303;0.12099059592071221;0.014681299351075221;158.0;0.20531636041375834;0.133183082069516;0.017781424107430093;161.0;0.20807505688031339;0.1296775336102754;0.016863523611614462;159.0;0.21215782404431205;0.12918221255640722;0.016731887485640168;159.0;0.212127837468354;0.13021614482643457;0.01700246445843318;160.0;0.21280683955118207;0.12986490548972138;0.016911339755906606;160.0;0.21244197079608373;0.11264112205663619;0.012723943900628814;155.0;0.20110220414581165
0.11289153570275172;0.01278596374278917;151.0;0.20768608587907558;12.0;0.10185629112834019;0.010408601116911038;156.0;0.19559073517865194;0.09067625740969798;0.008248701711609055;149.0;0.1814940037728825;0.08620853903991928;0.007455739602336165;151.0;0.17550986328219145;0.08450729849189133;0.0071643942076442015;149.0;0.17228697137184826;0.08231840595030615;0.006798251758952791;149.0;0.170975060860441;0.08042908221548098;0.006489479118349271;146.0;0.17079065275777375;0.09795201943027798;0.009624652382687785;154.0;0.1989380057113067;0.10046215506095693;0.010121040893722361;147.0;0.1806242872326757;0.094956656237182;0.00904399150873792;153.0;0.18045534101973176;0.0896411099795726;0.008060026815393348;155.0;0.181948077918483;0.08578791799476726;0.007383388786024155;155.0;0.182519758781551;0.08008651517810615;0.0064345967424841895;153.0;0.18035669975312946;0.0783775436064635;0.006162913803511228;151.0;0.18051574733555031;0.08067034805648507;0.006528975068572158;147.0;0.18466835690212274;0.09431064218158197;0.008921035708880582;144.0;0.1766819605246699;0.12733733055749172;0.016267723286970907;158.0;0.220625425187122;0.12466655080270088;0.015592249467947211;153.0;0.21354411456816386;0.12507504870647457;0.015694823154641335;154.0;0.21104025096060963;0.12308111704065018;0.01519847999049184;154.0;0.2080353181271845;0.11952063300267124;0.014331921723073246;154.0;0.2053796099812885;0.1149192553985484;0.013249480084178162;153.0;0.20211943138277322;0.111331125355173;0.012435059006526347;151.0;0.1996433993187476;0.13354532000942457;0.017892549991846824;157.0;0.229189931600369;0.11126201020825012;0.012419313192343942;155.0;0.1968640930283723;0.11430611699028871;0.013107632313013593;162.0;0.19856662809423742;0.12068191518887109;0.014609966944485592;163.0;0.20030398753965195;0.12038243146669773;0.014533830148934314;162.0;0.20651638478508222;0.11999101210391908;0.01444178589089854;160.0;0.20594025581346223;0.12099356133718113;0.014684179719827328;162.0;0.2069740044455387;0.12045574693259402;0.014552149640068587;160.0;0.20628585636255314;0.10943764858809783;0.012015750055057114;155.0;0.19532706746132847
0.08799316256181024;0.007768022404473809;154.0;0.1793356634860985;12.0;0.08088704296589315;0.006564092708038932;155.0;0.16956297551284252;0.07399867946356546;0.005493678166992242;143.0;0.1586501526171981;0.07171240313320464;0.005159521261400802;148.0;0.15356076585137876;0.070757901819529;0.005023093816497801;148.0;0.15093885230445572;0.0694570386403867;0.004840007001254612;142.0;0.14986257604039188;0.06812898183011705;0.004656774142893599;137.0;0.14952500114881004;0.08117548887427954;0.006610593634011106;149.0;0.1752109658526926;0.08309584649995867;0.006922363141685855;145.0;0.1587586141106529;0.08251944762239088;0.006829968945877665;151.0;0.1601631101243826;0.07739279586940784;0.006006703085623122;141.0;0.15886991713343412;0.0711061974791964;0.005071363539010989;152.0;0.15767777831616417;0.06572168274801325;0.004333070220104368;152.0;0.15423830344238504;0.06546889769543392;0.004300149516817219;144.0;0.15444991591397683;0.06738261055231676;0.004555250081187793;141.0;0.15979793339849754;0.07595867878248966;0.00578528313327835;144.0;0.15249073139078484;0.09764489176497852;0.0095656893288786;143.0;0.1651783087519631;0.09675874083870219;0.00939205212963631;142.0;0.16233407977972142;0.09650218495865448;0.009342030619483768;144.0;0.1606118853397656;0.09462287031701362;0.008982288042217311;142.0;0.1585494439791999;0.09153394492790297;0.00840540618746499;145.0;0.15635040292731484;0.08813095605476158;0.007791079441384707;147.0;0.15464994849337407;0.08584428698991672;0.007391723393150731;145.0;0.15276004137690158;0.09779334738844148;0.009594381374892567;148.0;0.16940681957295964;0.08704535924313588;0.00759779931288916;168.0;0.15028911767109354;0.09009933561894096;0.008137687171034207;175.0;0.15209146063005202;0.09659972671892156;0.009353754421643615;172.0;0.15502504192365638;0.09805117188487801;0.009637620696343068;168.0;0.15650616673172552;0.0977779932025862;0.00958526450978883;167.0;0.1559390335126135;0.09865969150964916;0.00975838254293139;170.0;0.1569927103326674;0.09808474156107495;0.009644822065399116;164.0;0.1564133721337327;0.08526493612091134;0.007289012518713975;169.0;0.14921108871338332
0.053939018467672295;0.002915041880222094;153.0;0.13729320350344162;12.0;0.05065858329945289;0.0025698649121704818;155.0;0.13041927213727883;0.050023776154811316;0.0025036178247461326;142.0;0.12610545335426732;0.05139142719030476;0.0026421181681992034;151.0;0.12547242564087838;0.051707273075977785;0.0026748092038363165;150.0;0.12352636920713282;0.05150446134104396;0.0026532314594822594;142.0;0.12256263612933321;0.05090799634580067;0.0025925956153477975;142.0;0.12177788426570027;0.05463395084062741;0.00299167446921105;155.0;0.13740490962554883;0.06115584625339063;0.003734157066980619;137.0;0.12692378880256625;0.0642277511217128;0.0041235720014522964;132.0;0.12779221559523923;0.06451717384390758;0.004161268194618054;118.0;0.12707265399226206;0.061275582708354155;0.0037524480487264957;130.0;0.12650987890011967;0.052227985426103476;0.002726263556949357;137.0;0.1225726704462584;0.0473420466888952;0.0022431329012697764;136.0;0.1227618276709218;0.047550072901733624;0.002265213776364329;148.0;0.12746126725552834;0.05590265531495738;0.0031161851710866995;125.0;0.12310519068967231;0.030116518654278564;0.0009063227841511058;154.0;0.08774809128918355;0.030411877358217;0.0009257884119158197;153.0;0.08890014961903896;0.031102322683793367;0.0009685084562698114;150.0;0.08928373039115503;0.03126571763755962;0.0009790302172301279;148.0;0.08913626184104265;0.030600669199697207;0.0009379493437928841;154.0;0.0884233176835883;0.02886339013210559;0.0008344807196098198;157.0;0.08886167184788688;0.028627735112097825;0.0008210252602210859;149.0;0.08819412686482486;0.033885042763199924;0.0011478727882332205;158.0;0.09487498703754708;0.02922478854454743;0.0008554980117463159;174.0;0.08561543103924352;0.03022706534137397;0.0009146345373921308;179.0;0.08608243847151426;0.03246977108687902;0.0010557858366664946;174.0;0.08805316354591415;0.02982199426683607;0.000891702082833411;168.0;0.08548131115696124;0.029913908609633156;0.000897176267305593;169.0;0.08624239227697011;0.029915480946778913;0.0008969812762905259;169.0;0.08575724130630266;0.02983830566528786;0.0008928798201944646;165.0;0.08562752239696587;0.029262978011419295;0.0008573818665014998;175.0;0.0845494304302045
0.07657194662019495;0.005875492434832587;160.0;0.16162838175052638;12.0;0.06936125910968358;0.004821287460100672;159.0;0.15044385884758066;0.06525310970709021;0.004267886921941421;154.0;0.14318861714197748;0.06466479791515217;0.004192169782136413;154.0;0.14190081322758222;0.06362567620854098;0.004057098485761624;157.0;0.1405698524998754;0.0618576034714347;0.0038352286847096223;154.0;0.1388392009794819;0.060285298643177186;0.0036419463083919167;156.0;0.1380726113259405;0.07939097642315357;0.0063176734254656855;165.0;0.1639624434542661;0.07645410891632173;0.005852107836294534;148.0;0.14421622789285463;0.07956852580033506;0.006339469986976261;149.0;0.1463591822805212;0.0812509093451893;0.006615624980580293;147.0;0.1485100642104035;0.07818449179966905;0.0061276967198744545;154.0;0.15198244958214285;0.06848357912358036;0.004700172194751728;148.0;0.15057465163500164;0.06328602211790994;0.0040133556076066305;152.0;0.15099149483546032;0.06612181480809665;0.004381792697011373;168.0;0.15535891531305077;0.0674044960990705;0.004549739688337519;147.0;0.1383457742454288;0.057659196992773;0.0033328141183934733;161.0;0.12929538148885555;0.05550383702368952;0.003087712047323134;156.0;0.12862005232743007;0.05619208306560197;0.003163705838217898;155.0;0.12967445805638955;0.05566522589409776;0.0031052552383162547;161.0;0.12925778997018111;0.05450149310988385;0.0029768455283955566;163.0;0.12844461652848022;0.05220136913848187;0.002730274185656261;163.0;0.12742793907746952;0.0510447501700832;0.0026114432263691645;157.0;0.12521084383638453;0.06515198053080605;0.004254250285524771;164.0;0.13442218820367127;0.052120084718949126;0.002722881917952698;156.0;0.1239872052803751;0.0547539183736389;0.003005079536848142;158.0;0.12485988463818183;0.06045670061902168;0.0036644839905209453;155.0;0.12666255303474813;0.06701750405225536;0.004502497366267593;154.0;0.12675495008968493;0.0670449430367834;0.0045063312691592285;154.0;0.12714497957483142;0.06725190408956049;0.004533799444989119;151.0;0.12675959972499984;0.06715483349026324;0.004520558333096647;153.0;0.12679415362229027;0.0518863603364189;0.0026970519374531444;157.0;0.12181465082527757
0.09415427634014743;0.008891397117394733;163.0;0.1820057665608069;12.0;0.08259249489765814;0.006838931560767478;164.0;0.17006426818970988;0.07237676331667202;0.00524938076540207;161.0;0.15986323273760647;0.06904144055694869;0.004774241888970015;154.0;0.15602687078675853;0.06717978727932415;0.0045200582420147324;158.0;0.15411935018559056;0.0650090310669813;0.004232690106215363;155.0;0.1522074562062566;0.06336080191689317;0.004020658720685806;156.0;0.1516310724483337;0.08871861440870554;0.007895431618495933;158.0;0.17866773232623379;0.08818207024623212;0.007794170461351721;152.0;0.16318271045822502;0.08740222623441818;0.007657631909211354;158.0;0.16106211167140586;0.08586798964785677;0.007389550891747998;158.0;0.15953771379715226;0.08082602270864055;0.006544820562521195;159.0;0.16200454617347027;0.07399735639017212;0.005485597963709143;152.0;0.16247901216191069;0.07107831218810058;0.005065497503959169;150.0;0.16433890250357516;0.07389964527107638;0.005477966729474469;155.0;0.16861320791641213;0.07695159735703885;0.005928202835548938;157.0;0.15626501759707584;0.0860363161631727;0.0074258899100537595;142.0;0.1648977137653094;0.08423386112752439;0.0071181624485609106;137.0;0.1586867344601783;0.08576918811582818;0.0073803534350767135;139.0;0.15896642634665414;0.08495194263848468;0.007240409672254977;143.0;0.1581392278462707;0.08214495431174579;0.006769810639705135;141.0;0.15730285750459863;0.07786498705287227;0.006082683589399048;142.0;0.15449585783853462;0.07474262650161857;0.005604629670402714;142.0;0.15193787761670766;0.09149058484013349;0.00839698010265264;144.0;0.16919633006583937;0.07254301358971768;0.005279701518058883;143.0;0.15195314505262703;0.07663597691869947;0.005892260339387108;153.0;0.15428037089332364;0.0839936824574076;0.007077984479880601;156.0;0.1572669380757253;0.0839166066546506;0.007064311611229409;143.0;0.15399073086243428;0.08370447744931517;0.00702843161329013;139.0;0.15381164121220245;0.08419338774735216;0.007111282680862432;138.0;0.15432366375644888;0.08405183597267829;0.007087480834314415;141.0;0.1536857716168282;0.07181415091601132;0.005174043562845533;148.0;0.14991783781360837
0.1022411851029077;0.0104622273405821;157.0;0.19834956803836892;12.0;0.0900880653276351;0.008123443797607318;158.0;0.18625262669558837;0.07683597816628131;0.005905660986930095;152.0;0.17452073664753892;0.07151325817572923;0.005115453160598505;146.0;0.1683571552743981;0.06875591657080729;0.004728541417528415;150.0;0.16555126746356874;0.06650605028853254;0.004425134162558422;147.0;0.1632861332684213;0.06454785817056755;0.004168015351309874;153.0;0.16172028591906637;0.09195209822834279;0.008467782112952758;155.0;0.19272857194794216;0.09729542136321262;0.00945317510408884;155.0;0.17843049018058027;0.09438685846996529;0.008902096119504314;153.0;0.17428454307897753;0.09203587618277567;0.008474900620126609;146.0;0.17383573436054311;0.08730078104346804;0.007630068961210145;143.0;0.17595788396928663;0.07968334371796029;0.006355150023330747;151.0;0.1738397989778707;0.07540104991563527;0.005690923583048601;148.0;0.17370631269276962;0.07685697400807001;0.005910909444041138;151.0;0.17835881103987128;0.08456042268741103;0.007147454074770539;148.0;0.17171674354739463;0.09828559870344011;0.00967199283129004;149.0;0.18175621337819095;0.09646096833659157;0.009318904436158926;146.0;0.17461691903063065;0.09773651302540351;0.009565732191433461;144.0;0.17366668338850424;0.09596160964087493;0.009222706208256897;147.0;0.17118930285727668;0.09244559625681667;0.008559993896018284;145.0;0.1689667800137596;0.08652301436782642;0.007498373869385619;146.0;0.164776790350048;0.08244928292549761;0.006809122059118262;147.0;0.16233669333073703;0.10789769809077551;0.01165105118118619;148.0;0.18871632371447747;0.07748965514903469;0.006018100306950227;151.0;0.16017197120147356;0.080673601128066;0.006525773600696873;157.0;0.16197475141249246;0.08672292354417672;0.007542155219622516;161.0;0.16501949069720975;0.08420879687433418;0.007109455931199981;151.0;0.16579162755858504;0.08362881740289549;0.007011922746886914;148.0;0.16479360699649828;0.0843678683900004;0.007137155378961801;148.0;0.16580331000399834;0.084046543359473;0.007082093205757716;149.0;0.16503185096238285;0.07802879282089814;0.006101262424577813;154.0;0.15909380722305366
0.12141853668175452;0.014790612321313908;154.0;0.21348662579380043;12.0;0.10713345563621061;0.011514815904195945;159.0;0.19993801933196848;0.09334868854742519;0.008742039549706048;152.0;0.18551419581528134;0.08680463260045292;0.007559470008788656;148.0;0.17715854627952415;0.08319585670466784;0.006943630952204971;153.0;0.17337216571729358;0.07985980919736975;0.006397594511936972;155.0;0.17061314943399192;0.07710300869025938;0.0059639485406711885;159.0;0.16792945293268968;0.10922991877258725;0.011970269985487234;153.0;0.20978186727010095;0.10347588264128607;0.010740127813784766;168.0;0.17729083344439464;0.09649496549035745;0.009341213139740111;165.0;0.17634248887431495;0.09349047168759764;0.008769029416739509;163.0;0.18175778077558072;0.09239367206161037;0.008564517492320189;153.0;0.18654040284736628;0.08977978013666799;0.008086707733228104;154.0;0.1862415736103854;0.09204837435734814;0.008500631757734802;155.0;0.18684867323422671;0.09741671550061667;0.009521125018300056;158.0;0.19319473430355863;0.09608014714332089;0.009259969379479253;158.0;0.1737162096037792;0.09525518135884142;0.009088661522642727;154.0;0.1920018518009555;0.09135724196019487;0.008360974632837819;154.0;0.1837286343491997;0.09129536410752426;0.008348568216926491;151.0;0.18165424979164924;0.0888231415415978;0.007900911429950324;155.0;0.17941533821632422;0.08555327169951718;0.007331175742895156;155.0;0.17674675759885278;0.08033395144286981;0.006464990245216445;157.0;0.1736984218763535;0.07663507081830023;0.005881102710280704;158.0;0.17165051568985543;0.11154707096477834;0.012475099216350073;155.0;0.20072397373117143;0.07335650546844166;0.00539170587017883;154.0;0.16872531612895936;0.0753401473105719;0.005690003187619474;151.0;0.16815421893189889;0.08070774249333319;0.006531798250890242;151.0;0.17035850421972742;0.08320855524201837;0.0069441004110559566;150.0;0.17523289631915734;0.08276953413865774;0.00687072902482613;149.0;0.17456477060424846;0.08327835211907891;0.006955626758882056;150.0;0.17527074586898392;0.08298030875923529;0.006905933826471176;151.0;0.17493530545701266;0.07438241327450595;0.005546932125368931;152.0;0.16646602353969864
0.11631915687311337;0.013571491416990997;143.0;0.21004487352303877;12.0;0.10298772158001966;0.010639171047527136;147.0;0.19811529631123967;0.09114838621835808;0.008334848471930731;145.0;0.18388184488784262;0.08578213013369;0.007382710585501376;143.0;0.17582625899386337;0.0830433079316045;0.006918953171901119;146.0;0.1710487757908801;0.08059357464767485;0.006516757672048203;148.0;0.1682229863357361;0.07849974951153615;0.006182506150782834;143.0;0.16573107857856836;0.10439331015614896;0.010928703651290301;149.0;0.2061035977697882;0.09994072665515293;0.010020679032269534;154.0;0.17399921707009422;0.09411973926522155;0.008887579166492084;153.0;0.17403998143048785;0.09171564084599515;0.008438551658035228;152.0;0.17812367703176293;0.09136345762822642;0.008373323987461606;145.0;0.18181939364782587;0.08954757670246502;0.008043467425164453;142.0;0.18239598925078412;0.09234737253292086;0.008554489839588088;153.0;0.18569148554670242;0.09727732986086161;0.00949054157729961;151.0;0.19229754671728894;0.09400189661740779;0.008865156959254362;145.0;0.16886502117001834;0.10014846057122595;0.01005525551196621;145.0;0.19886955411936194;0.09251190969217135;0.008578092072921664;140.0;0.186685730648887;0.09209934258891488;0.008502824440309186;142.0;0.1840143459880658;0.09007516897664422;0.008133004859674922;140.0;0.18164294435641704;0.08623157276893632;0.007455105317163697;143.0;0.17920394754973645;0.08171146530090748;0.006693883134333126;142.0;0.17698241853396532;0.07814924648183033;0.006124631472481739;144.0;0.17533599789759827;0.11360443158637747;0.012939367606698992;143.0;0.21112278594883846;0.07422267348601662;0.0055253680750851275;141.0;0.17362770457052518;0.07549139122093576;0.0057161532896722695;141.0;0.17283056830300114;0.0793140388908283;0.006310886406900854;145.0;0.173625819299815;0.08550410481844889;0.007334252307206003;148.0;0.18226784010697275;0.08534110680382694;0.007306681102217741;147.0;0.18211872313698652;0.08575123791152386;0.0073766064092225725;148.0;0.18262844625153504;0.08589405927286355;0.00740111081904708;149.0;0.18245691561919986;0.07329709872607638;0.005387840338730101;138.0;0.17084606900138757
0.09165615113929193;0.008428339217941396;144.0;0.1845949143666434;12.0;0.08290808160924296;0.006896232339437438;145.0;0.17556825231511478;0.0754055621323802;0.005704588139603898;150.0;0.16595367134472636;0.07296099259813806;0.0053407034845388045;149.0;0.1625156682774971;0.07155533417749974;0.005136888714849491;148.0;0.15860369383435696;0.06995733920124739;0.004909880179613249;143.0;0.15606800314930125;0.06800725598652585;0.004639958428532488;142.0;0.1544164269278829;0.08517335879316858;0.007277357617503675;167.0;0.1829529543431744;0.09370733102272844;0.00880667306148348;147.0;0.17693729476025669;0.09312738600774728;0.0087010121609012;144.0;0.1768060493429131;0.08943400209111263;0.008024038345743596;144.0;0.1745996288173917;0.08470865542339154;0.007197906576609804;152.0;0.173740651843997;0.07758930125863463;0.006038286944908345;157.0;0.17121321297143896;0.07476265061800028;0.005604004686226671;156.0;0.17206627894678891;0.07686614622690549;0.0059250589234097276;156.0;0.17416267770638683;0.08349744175756627;0.006990308130302544;145.0;0.16635828345695122;0.11173438243051424;0.012511686187171887;146.0;0.21497733805461436;0.10239440990643578;0.010505689143299874;138.0;0.20278167100430328;0.10148801733940317;0.01031684321022588;141.0;0.1992333649830629;0.09932313186681888;0.009879621213430568;140.0;0.19550011494684494;0.09571967606472075;0.009180011076565128;139.0;0.19220240341150371;0.09148517227704875;0.008385010690345278;138.0;0.18941551609141624;0.08860988873288171;0.007867362249494969;141.0;0.1879783458191324;0.1210936226565348;0.014699909331699108;143.0;0.22524214559041938;0.08399335868405867;0.007064485129202991;140.0;0.18483356389836514;0.08550389871617661;0.007317399319086117;142.0;0.18452884594895913;0.09065011119337067;0.00822566923327288;150.0;0.18595109399863824;0.10090725063842727;0.010200917205085447;149.0;0.19719357416462535;0.10072185180187511;0.01016260301235396;149.0;0.19672768816367972;0.10142589331300152;0.010301181723426851;147.0;0.19773977036101167;0.1013735411048151;0.010293887219503561;148.0;0.19751341022032123;0.08267825442538435;0.006844639221781075;139.0;0.18395011599326733
0.10153283922791165;0.010313266373010407;155.0;0.1890710823120726;12.0;0.09107094460662812;0.00829726889301158;152.0;0.17752867019061236;0.08387626520671575;0.00704166214844326;159.0;0.16750424931596766;0.08184266449138855;0.006705582017905484;156.0;0.1653782726590907;0.08049661036743247;0.0064880640199965;154.0;0.16265711354655657;0.07851373009057239;0.006174371772928482;145.0;0.16126886266931026;0.07611758076367803;0.005804976043535548;148.0;0.15974775764528676;0.09874784277738839;0.009759179771135175;172.0;0.18602433161556242;0.09733197835113445;0.009496017876562917;160.0;0.18088294737871846;0.09494416059393469;0.00903558424147639;151.0;0.17892846912936256;0.09275408205895057;0.008622184047295148;153.0;0.1757757645124592;0.08845717205610545;0.007837340103476953;161.0;0.17432789742648216;0.0813417699614164;0.006624927568323089;163.0;0.17128233240171156;0.08064892064723848;0.0065131174103884755;154.0;0.17101257564349723;0.08584753752646461;0.007376939500573789;162.0;0.17365085699027882;0.08654743395608012;0.007505783270554878;158.0;0.17255837910034133;0.12729608768720033;0.01625406238776381;148.0;0.22279414473716394;0.11677556329900417;0.01367958829889936;153.0;0.20977690352791584;0.11348895647368212;0.012919217748388154;154.0;0.2047952942491677;0.10981884470871853;0.012097334015479601;152.0;0.20093828359071003;0.10581123567916345;0.011230759461208576;151.0;0.19745733081040093;0.10125007867207744;0.010283415747550925;155.0;0.19463517070671707;0.09832777828133828;0.009698155052561401;157.0;0.1933848425024634;0.12478080805547571;0.01561756518351442;153.0;0.22385187463563047;0.09340832962502058;0.008751607010868292;160.0;0.18963571339301707;0.09585056116651335;0.009215461988607692;161.0;0.18979896894699003;0.1022965884009839;0.010495296226295714;169.0;0.19255099887294289;0.10443391950197552;0.010940387787034732;150.0;0.1970927822585071;0.10413714421615543;0.010876964657641524;151.0;0.1967094594631423;0.10491472398549771;0.01104001963947953;148.0;0.19745834094179185;0.10468922764599649;0.010993729001350639;150.0;0.19744013468595903;0.09249750613481142;0.008581248563484299;162.0;0.18877636232063452
0.10429557842178105;0.010910281338475911;142.0;0.19543916783393678;12.0;0.09151755316500723;0.008400402405013562;138.0;0.18200272775100024;0.0814358654953767;0.006650855565315021;146.0;0.17007344228472063;0.07729909553486268;0.005992311089157299;143.0;0.16501491222752618;0.07498639740623189;0.005639464326677705;144.0;0.16253109380854067;0.0723930027362084;0.005255689813379154;141.0;0.16033508203636085;0.07004794266758817;0.004921206474418076;142.0;0.1590633274709467;0.09969282514712159;0.009968268659310922;151.0;0.18632784498724167;0.09901827653052535;0.009836706307567864;151.0;0.17935811215744224;0.09248701960297623;0.008581769586245885;139.0;0.17774847292032284;0.09228293223183322;0.008542075285391852;142.0;0.17614899467991504;0.0919237457047977;0.008474698362246331;141.0;0.1758162204410875;0.08568643079423718;0.007362206584037617;142.0;0.17218699322884462;0.08392835534353466;0.007062266083951919;145.0;0.1710830036761003;0.08899441876577957;0.007942526148526325;152.0;0.1758479838065912;0.08413510267407616;0.007101987157430038;147.0;0.1704795808975597;0.13481142410578717;0.018230262882114146;152.0;0.21898228116852264;0.12585542256252852;0.015888974350254617;157.0;0.20925381424540715;0.1239246413250982;0.015406395232331576;158.0;0.2066440689328126;0.12096020350328832;0.014678787099780105;156.0;0.20411488144731443;0.11727351095038223;0.013797725812711117;159.0;0.2017927001888194;0.1139893677320492;0.01303598264267038;160.0;0.19992961888908625;0.11142689357584427;0.012456393635454317;160.0;0.19823427353784764;0.1321888694744729;0.01753037969439372;149.0;0.2178231803130644;0.10997592152129011;0.012134028016931024;162.0;0.1947189519588318;0.11320343251259499;0.01285674303362032;164.0;0.19514736864562438;0.11896602615794681;0.014198766030942677;168.0;0.19683957521325607;0.11859094640826479;0.014109754758340958;161.0;0.19920833711871613;0.11825897869131623;0.014030931698337828;162.0;0.19897772901051072;0.11918941655162608;0.014252589490812234;161.0;0.1994340246484061;0.11897674345190128;0.014201738296281899;162.0;0.19939329482543425;0.107263663562619;0.01154271475393027;163.0;0.19391689482366894
0.08209838074061654;0.006756499550344202;147.0;0.16026555182536695;12.0;0.07181532731898559;0.00517141829890225;146.0;0.15125308151109132;0.0633430986795035;0.004023536959578066;149.0;0.14467847874966672;0.05982406755100826;0.003587723400614988;143.0;0.14126442686859547;0.0578064017486203;0.0033508464869971134;141.0;0.13956299036265943;0.05556287494763682;0.003095399629201655;142.0;0.13722795108932512;0.054227152580437754;0.0029489538986950514;143.0;0.13676551478564497;0.07718184735983953;0.005973661729166163;157.0;0.15498790995108053;0.08701422024320071;0.007595864213366189;137.0;0.15683945218414044;0.08172036942109437;0.0066999726945788625;136.0;0.15716243157452786;0.07706145941443829;0.005957472853569021;143.0;0.15277485247219372;0.07366901111133585;0.005443933934444536;146.0;0.14967218946093705;0.0680030222805624;0.004637949089311011;153.0;0.14576838800433897;0.06608346265292672;0.004379609852915669;153.0;0.14491344875941256;0.06897545186966512;0.004771111406220215;156.0;0.1483193812112905;0.07327779578722661;0.005384790780525377;139.0;0.1451513250433145;0.09647182215194329;0.009330657227748326;168.0;0.16064294431255796;0.0919837763603499;0.008487012534719472;166.0;0.15692714569685062;0.09223295537642139;0.008531271914891593;166.0;0.1568342150809887;0.09108335310497102;0.008321101150154964;166.0;0.15568691374297333;0.089010133016923;0.007946337581421312;171.0;0.15517619215240105;0.08791337550638023;0.007752342465855782;165.0;0.1542706170030966;0.08637190467955559;0.007482482148340019;167.0;0.15316026476441696;0.10184791489185759;0.010397956260941319;160.0;0.1634319530808723;0.08879175474907816;0.007906486909896015;167.0;0.15131464930498417;0.09193669525050698;0.008477004607147882;168.0;0.15209772591103965;0.09660128382232239;0.00935871882109617;169.0;0.1531805719615441;0.09993997664391019;0.01001670834148756;177.0;0.15626442524577644;0.09972875502486674;0.009971884038358778;176.0;0.15610746793175956;0.10050256330299118;0.01012837935536068;175.0;0.15669895055074898;0.10035955894453948;0.010099336924443699;174.0;0.15661515991024927;0.08543017129600607;0.0073193500452128565;166.0;0.15139197722380793
0.0665497899655092;0.004442769107229413;159.0;0.14830222104032634;12.0;0.06190335220240365;0.003843123553950429;160.0;0.14010882618741483;0.06008079888693252;0.0036205510869655676;156.0;0.13658553051126102;0.06019356684135176;0.003634779772787182;152.0;0.13517733403098367;0.05999370845008954;0.0036106733394175327;147.0;0.13413448279797882;0.05891159470459969;0.003481704363231094;145.0;0.13290383087240154;0.057937333556770915;0.00336746933274999;143.0;0.13175242256298672;0.07035533274182881;0.004965717357750535;157.0;0.1550819974020139;0.07147534794363854;0.005125044033876111;135.0;0.14121773289677364;0.07878585562433345;0.006225450970374155;135.0;0.14657715383866282;0.08381786520413703;0.007045943208940919;148.0;0.1469782754717463;0.0800914706135985;0.0064342154186868596;153.0;0.14415065436978597;0.06881025113300206;0.004750162764017883;154.0;0.1404991023549937;0.06323382043655681;0.004011635918507321;147.0;0.14166272729248608;0.06281005670466368;0.003958081228832337;149.0;0.1457728451487794;0.0624390789249402;0.0039113595397947485;135.0;0.13069753522290112;0.04026353894327973;0.0016191233466236583;155.0;0.0876775826479009;0.040356953190490215;0.0016295281904066955;157.0;0.08963257909012845;0.040708518660027684;0.0016566457417662064;155.0;0.08921321381757445;0.04078292182118041;0.0016645470392046109;155.0;0.08867903364228437;0.039448196221811935;0.0015566998666305505;159.0;0.08825194327226277;0.037482574829714434;0.0014061259702987992;155.0;0.08703140220147844;0.03594172505383728;0.0012921574944686526;156.0;0.08630007727300759;0.04073510975069105;0.0016579108229182317;154.0;0.08681053039965646;0.03618019568261135;0.00130783690301072;157.0;0.08423798124210033;0.03709500583629526;0.001373902554566962;154.0;0.08438481795500125;0.037851454464503075;0.0014279994939511115;156.0;0.08450370362536669;0.039766871370696455;0.0015790401466123534;168.0;0.08517663144621385;0.039831569015732066;0.0015838253857997366;162.0;0.0847074950500733;0.039804442075359055;0.0015816882763222307;164.0;0.08501736438933016;0.04000449830222686;0.0015979692821795483;164.0;0.08518608039156268;0.03482898153900775;0.00121242132353959;157.0;0.0838096764342736
0.0870098847832327;0.007594311601732942;157.0;0.17426501185210805;12.0;0.07900763124337182;0.006262386345545088;156.0;0.1624982212324772;0.07423821593049605;0.00552911834889753;151.0;0.15342955736637073;0.0737565907570449;0.005457783355938265;146.0;0.15062811797260445;0.07349629475987075;0.005419163938832877;145.0;0.1495685657414115;0.07257078924657274;0.005283666469307058;145.0;0.14799705978373826;0.07084763185854091;0.005035724159891919;142.0;0.14628545674557286;0.08915774606069948;0.007973242019734317;145.0;0.177005170532878;0.07592341653979587;0.005781799657803802;141.0;0.14903923872750138;0.08574226005360659;0.007374120908297682;138.0;0.15664046378354057;0.09705820334916511;0.009449499386662358;148.0;0.16315280563764295;0.1005662764980305;0.010143228470148615;158.0;0.16808653099245763;0.09106802557944778;0.008317974226972549;154.0;0.1649565885253017;0.08420099129652119;0.007111785995130349;138.0;0.16432206187443865;0.08323794537512959;0.006950014177745425;136.0;0.16808971229830844;0.06749265413144011;0.004569992900348701;133.0;0.14078270707780893;0.12204089025109917;0.014942656810890076;146.0;0.17262711580535925;0.11961440858025169;0.014353962159819206;148.0;0.16978683130758582;0.11915105238334193;0.014242908022557503;150.0;0.16852918783932955;0.11587070642658104;0.013469526660378362;149.0;0.16620440763908265;0.11196167581135906;0.012575127452406144;146.0;0.16326478100793865;0.10826120951166414;0.011757623087953297;147.0;0.1609240942203953;0.10579825041448851;0.01122863646512638;148.0;0.15924434338992993;0.12017591016231023;0.014489394970264462;145.0;0.1768234131097703;0.10903827297166847;0.011926189192574687;144.0;0.15827116883664458;0.1144148130663303;0.01313127158816786;143.0;0.1583830201876883;0.12331921107046587;0.015254591548843675;147.0;0.15842880946238105;0.11265689249490766;0.01273345227088412;151.0;0.15801456655502663;0.11247090302478935;0.012691520173355422;146.0;0.15799391946347563;0.11330867354329524;0.012881324263505606;149.0;0.15801182814266235;0.11292904759700911;0.012795067095455378;150.0;0.15819595419149712;0.10655940802392082;0.011391122471166616;144.0;0.1566865106247838
0.0908652701021477;0.008281132760345488;163.0;0.18416355598617415;12.0;0.07996570083551406;0.006414339631186165;157.0;0.17177993406100212;0.072751672854531;0.0053098861909811725;143.0;0.15846010904915714;0.07185990167138985;0.005180669050963507;138.0;0.15430501699488317;0.07163661842768151;0.005148611216840407;136.0;0.15374694892970997;0.07050256060713313;0.004986890353911311;137.0;0.15201868775065938;0.06885709599565942;0.004756800634100439;134.0;0.151009184842769;0.08844349322062098;0.007845484217967064;151.0;0.17957764510553553;0.0725967895484369;0.00528717169617273;142.0;0.15677044310994998;0.08098037294004694;0.006578219421866073;145.0;0.16108021560243665;0.0870966085985631;0.007607111363245142;154.0;0.16408909694665336;0.08894502308206995;0.007932956782557449;165.0;0.16921532193088104;0.08555077592849315;0.00734024842815065;159.0;0.16797015397857162;0.08363929508430486;0.007016093865402544;147.0;0.16746362346114052;0.08477968558874403;0.007209137863450338;144.0;0.1716872803207336;0.06243745772332888;0.003910798034851047;146.0;0.14632985364121204;0.14095714910779059;0.019933612704259227;157.0;0.20857161638013663;0.1374147827028617;0.01894453463933113;156.0;0.20248884793347405;0.13779885796576335;0.019050486878604552;164.0;0.19999152102060963;0.13562696623856363;0.018454054511967563;167.0;0.1970383509293372;0.13235356081980626;0.01757406885360342;160.0;0.1942167966329492;0.12874611071510553;0.016629290622336812;160.0;0.19167536132694263;0.12660143386382602;0.016078898236704862;162.0;0.18980639377025155;0.13773178048205512;0.01903152188696246;151.0;0.21503848827460573;0.13105704585722597;0.017231992035733425;162.0;0.19119865167866007;0.13699886671077405;0.01882932549812391;162.0;0.1921064743891542;0.14733010668542745;0.021776306480229594;166.0;0.19322221740489992;0.13891494710792898;0.019360388486273954;163.0;0.19501631518758394;0.1384107743685633;0.019219982822947138;163.0;0.19517764354924047;0.13946515136604995;0.019513445621481215;163.0;0.19547144928609503;0.13905621001765112;0.019399711766267452;162.0;0.19534980910891248;0.12742146798235346;0.01628907921385947;156.0;0.1886344072487001
0.08650774689655294;0.007498270764352238;168.0;0.18586542575115944;12.0;0.07797434698671155;0.006096288607411291;163.0;0.1758635816541132;0.07269084835890748;0.005299821853169238;152.0;0.1656891963637271;0.07168220291837916;0.005154081853672963;153.0;0.16208582324611748;0.07137992071584705;0.005111318381092166;147.0;0.1615786047871726;0.06937938041416938;0.004828971628780754;146.0;0.16121480984722153;0.067584824128747;0.0045826854109851985;144.0;0.1610943225682491;0.08104571594003375;0.006582197484238426;164.0;0.18330309072956638;0.08652349111993621;0.007508113329360419;143.0;0.17403630010840968;0.08282923221586815;0.006877895938946379;148.0;0.17049282817064107;0.08194042198399253;0.006728419139084521;154.0;0.16898649190355539;0.07955049856242084;0.006338694332769391;153.0;0.17080329959387006;0.07727547409242885;0.005983608499897569;150.0;0.17070327283245376;0.07666832069873519;0.005889548117702663;144.0;0.17150605788074622;0.07893671298278265;0.006240331601753409;150.0;0.17630263598467436;0.07757261874481725;0.006038996485659402;155.0;0.16425410658934478;0.10258654966824986;0.010558508868219943;147.0;0.194746586264133;0.10027261003708304;0.010087582732334134;143.0;0.1905866256060357;0.10194905713538599;0.010426136339316647;147.0;0.18875015252347985;0.10232627325290575;0.010504890464169652;154.0;0.18668760132245832;0.10138163386900091;0.010311929273512885;152.0;0.18492258844923684;0.09902100172356858;0.00983730718422684;153.0;0.18281705823084282;0.09769712255017213;0.009575641198193999;153.0;0.1816187799309779;0.10223381546479948;0.010486006089194368;151.0;0.20129819733384116;0.09782757288789873;0.009596827159445848;155.0;0.18236064104530136;0.09988321276830374;0.010000247656339648;155.0;0.18456102826358892;0.10448139943217978;0.010937005616296852;158.0;0.1864640785634005;0.10925347194035015;0.011971695510833;155.0;0.1958150818061172;0.1089626758254316;0.01191006523748397;156.0;0.19613881467149158;0.10959480957525486;0.01204469562814258;155.0;0.1967282780660989;0.10909283199886646;0.011936191704027817;155.0;0.19576073775635894;0.09511804348257115;0.009072955288444668;149.0;0.18001596953908883
0.09264091762326422;0.008599503378103363;156.0;0.19958931674858923;12.0;0.08502821426699753;0.007247723900843143;155.0;0.18977845295981086;0.07982068333871711;0.006389151205334859;154.0;0.17887395086806068;0.07818390367104659;0.006131383586678814;148.0;0.1736050825149095;0.07770283680303271;0.00605597470943918;144.0;0.17143077055394315;0.07581658798907481;0.005766249665984717;146.0;0.17102509700392687;0.07388255712942149;0.005475991639684439;146.0;0.170437495749902;0.08566496131322619;0.007356287071750602;151.0;0.1933370729469259;0.11033948004434883;0.012212226207630097;136.0;0.1832943807235769;0.09987495731989253;0.010007427122865564;144.0;0.17814780887566925;0.09365548770292219;0.008799768708837126;141.0;0.1763021570475035;0.08912799614348818;0.00796808209300332;137.0;0.17887554638351738;0.08186117482763436;0.006720292270414686;135.0;0.1781458226321681;0.07723207723106562;0.005980720742247176;127.0;0.17792836624432837;0.07841276934259307;0.006164248151088391;137.0;0.18208500993499488;0.10121418689912505;0.010274713832567893;134.0;0.1775227530498019;0.11045924011405057;0.012240339558455311;147.0;0.2049930362512911;0.10409120047648632;0.01086977850879286;142.0;0.19854829226856086;0.10309338847938648;0.010662764652118186;142.0;0.1963478951607703;0.101560500435138;0.010348129802604493;147.0;0.19441877735529461;0.09894502804535092;0.00982210076666877;149.0;0.1918642745563396;0.09551897251933536;0.009153443492449977;147.0;0.18939442463900075;0.09337501339028181;0.008747388855417215;147.0;0.18792236328221182;0.12181908112921402;0.014888363850499122;156.0;0.21474841319733975;0.09346557397617981;0.008763299490881057;153.0;0.18651602558399016;0.0964809053271577;0.009337744378367634;153.0;0.1884552538249909;0.1013500261838854;0.010303788200655887;160.0;0.18966191170575086;0.10734147756077352;0.011559256157276545;160.0;0.20218696335333677;0.10702616874842136;0.011491667036037056;161.0;0.20208426547851638;0.10779244460878445;0.011656930089149512;160.0;0.20282621701257875;0.10700519413030182;0.011487381733513114;161.0;0.20193186736499935;0.0923952557543455;0.008563248435351;152.0;0.18434155093072208
0.09956999670701663;0.009936113206458342;146.0;0.21187748546187818;12.0;0.09007218790008595;0.008134372048738236;154.0;0.20008888531488725;0.08158127404932082;0.006673007181232832;157.0;0.18542910239343321;0.07972233030360484;0.006373817210562918;151.0;0.17928373307239778;0.07910750898427765;0.006275421466516865;150.0;0.17710885450194433;0.07741948629958194;0.0060113576318055915;152.0;0.17555392058676392;0.07551140576765605;0.005718809974855492;151.0;0.17465998092250046;0.08590205534495275;0.007401397491064484;138.0;0.20018580276861786;0.11242876010681362;0.012674082979673705;140.0;0.1923139199423858;0.10460950842704556;0.010972954885374876;152.0;0.18930130395132147;0.09939595511044501;0.009909526720502052;147.0;0.1854404763964525;0.09220982401786307;0.008528166243116177;139.0;0.1860308790505048;0.07941361307526433;0.0063258588074682695;138.0;0.1828855726811919;0.07222898108112569;0.0052319447443568865;134.0;0.18061175394552378;0.07283427912690876;0.00531919394578557;139.0;0.18431270925547677;0.10293741013130461;0.010627240244101022;136.0;0.1848246974936217;0.1280277078529474;0.016418524084185728;144.0;0.22179824134927395;0.12258793258701285;0.01504039789046529;135.0;0.21415005727195377;0.12242785110454696;0.014996598756642698;142.0;0.2125114513450531;0.12075628172177955;0.014593790039291562;146.0;0.2112229900455101;0.11686580702800947;0.01366866983376133;145.0;0.20897158977551175;0.11233455349971115;0.012630563704169378;141.0;0.2064144552826214;0.10945511150811907;0.011991475988456152;140.0;0.20441133247133106;0.1406991864442107;0.019840738651236468;146.0;0.2333499035654259;0.1095703998437153;0.012016833596551727;147.0;0.20086690688466746;0.11356284583685888;0.01290278115434861;146.0;0.20124916983513666;0.11962893739752445;0.014326261200185736;150.0;0.2011015415723265;0.11997081941570319;0.014406365637449335;156.0;0.20659636825321298;0.11981627452484175;0.014368056426753211;157.0;0.20650996061918742;0.12060717319665944;0.014563850869503027;157.0;0.20704137778745949;0.12006543205963895;0.014431414652707544;157.0;0.2067097593150135;0.10782304418325935;0.011633184019813147;146.0;0.19898615322715907
0.10915709900503125;0.011943341190615476;160.0;0.21979665261829429;12.0;0.09897810175202214;0.00982029872371413;169.0;0.20618006127960822;0.09080758806338865;0.008268363870142239;171.0;0.19087170414488208;0.08971812625171259;0.008069991020180774;169.0;0.1844446230134169;0.0891875394759113;0.007974827855399921;169.0;0.18223621347740543;0.08724584907171706;0.007632489815440112;167.0;0.18006388364335693;0.08524451228420195;0.007286849687585289;162.0;0.1790710106818567;0.1004201288361037;0.010108659153519715;153.0;0.21178774353408908;0.11279080270612331;0.012759963397407755;161.0;0.19916171446587516;0.1082983653677179;0.011765687164906282;166.0;0.19726287333609585;0.1083242616551397;0.011770187627325845;167.0;0.19592806571188118;0.10729608356548657;0.011549079449486778;160.0;0.19902512892586993;0.09659942360119653;0.009359595774009853;164.0;0.1962414341036446;0.08790327049987473;0.007748922615022868;160.0;0.19371449079442335;0.0878423751472701;0.007736443227034563;155.0;0.19786502790628363;0.10256636052245435;0.01055038108203017;158.0;0.1899646209330931;0.12405462987439302;0.015431692230989835;158.0;0.22324428823223708;0.1213276925269646;0.01476235409378252;146.0;0.21717209279888358;0.12169154846602773;0.014850783277405528;150.0;0.2158103158746925;0.11981376830570663;0.014398778041951587;153.0;0.21320979629563874;0.11682423436804905;0.013687208680660576;151.0;0.2116564636029876;0.11365952264441943;0.012956715745267005;149.0;0.20934984394489722;0.11165483057615867;0.012504309250370672;148.0;0.20789839564950266;0.13214466901651595;0.01751141473276622;165.0;0.22936448528614461;0.11310722673018471;0.012831352420978452;145.0;0.20632497254257035;0.11765996989308695;0.013884266451036026;142.0;0.20710351295423815;0.12519277360459677;0.01571902595954349;140.0;0.2073023388944756;0.13255171402338284;0.017616852717056906;142.0;0.2133184294862611;0.13244524745792555;0.017589541207100563;144.0;0.21370378060878187;0.13311549514005297;0.01776887560846932;144.0;0.21381765327111693;0.13270318194938482;0.01765748899640564;143.0;0.21384870635875594;0.11135139153975804;0.01243514896535479;147.0;0.20436184824953188
0.11442787043757208;0.013136576260757675;148.0;0.21800523538027156;12.0;0.1036784032394894;0.01078430942932709;154.0;0.20426822745629253;0.09852268515161122;0.009738406342436869;154.0;0.19124794947995313;0.09944441598728822;0.009921151626219286;147.0;0.18716887369663485;0.10036935762663401;0.010106045416492385;146.0;0.18616920318012142;0.09907088389219428;0.0098464503776891;144.0;0.18544101177726116;0.09746522434274194;0.009529667261754214;143.0;0.18523682017441376;0.11945314202802977;0.014315761495272644;154.0;0.21984727092516287;0.12106698688013444;0.014702816848844547;158.0;0.19930345483521986;0.1204093451439455;0.014542352470819787;153.0;0.19989009679884506;0.11731541797392286;0.013805514896008671;158.0;0.2005800813055417;0.11351431390646717;0.012927578610822768;150.0;0.20077783517772835;0.10574648685484911;0.011218924221658046;153.0;0.197674552440991;0.1029002756841062;0.010623118646069506;154.0;0.19938723395769176;0.10573238766203578;0.011216001063351504;151.0;0.20546461931465282;0.10810140172330025;0.011722463881903072;149.0;0.19300491766777045;0.12177647059473308;0.014865842069498213;166.0;0.21354815894834905;0.12345502868913698;0.015274505851866516;160.0;0.2119694724025743;0.1257093634460787;0.015837260873756653;156.0;0.21253066658298445;0.12525908031044397;0.01572705825980887;159.0;0.21040641839386348;0.12325924017700451;0.01522862307367152;158.0;0.2087292806074879;0.1201144438173333;0.0144639573094553;155.0;0.20597859465147314;0.11762392211598066;0.013866084198984649;153.0;0.20369057919698025;0.12022253889986213;0.014484656008795761;172.0;0.21477274054078246;0.11657445494857005;0.013621753602658177;149.0;0.20253022303396595;0.11987408980493866;0.014400899686462288;145.0;0.20310599906690735;0.12594545761607628;0.015895865623123662;145.0;0.20404863371587734;0.13142249437064152;0.017314150520028677;149.0;0.2131136825659802;0.1308681440634349;0.017165259301540104;151.0;0.21301712739887219;0.13166413822362397;0.017375888603119883;151.0;0.21347068934291621;0.13150320366041054;0.01733460781617533;150.0;0.21353438062297872;0.11540146524836631;0.01335080886557125;152.0;0.20021859002628678
0.11351577349925386;0.01292793651250206;142.0;0.21319095228879;12.0;0.10021889843256551;0.010076440316883716;150.0;0.2002723045637738;0.09347062059231619;0.008763733982144317;140.0;0.18963527644476388;0.09331256162039128;0.00873358604089821;136.0;0.18584531578578273;0.09390694383179271;0.008845746777111196;141.0;0.18512578221844456;0.09286822730376545;0.008651051646285076;143.0;0.184835444557487;0.09136309384637682;0.008372645206319805;149.0;0.18440087866159774;0.11751250415027754;0.013853853948547313;144.0;0.21641152041072237;0.11452571623935676;0.013158323289950582;146.0;0.1988512762995242;0.11509835260059484;0.013290934153384793;146.0;0.19781742559273083;0.11063923120458341;0.012280986459545971;145.0;0.19471996711942305;0.10240723772818806;0.010521155232544994;137.0;0.19151564727602932;0.09647532196766202;0.009337942030487514;137.0;0.1885840109065252;0.09838420571930102;0.009711103385314591;151.0;0.19507718868392912;0.10308492496381728;0.0106611325292826;153.0;0.20164785863173268;0.10436301493414378;0.010926821388135282;147.0;0.19413932749996193;0.13866682601951258;0.01924586315783943;173.0;0.2191500725631204;0.14247847375906267;0.020317196092290244;177.0;0.21809749184941543;0.14551419717335676;0.021183166851189306;175.0;0.2192054668775368;0.14508185016630049;0.021070029208658393;176.0;0.21845154813323003;0.14196994220889902;0.020161421125920773;175.0;0.21679907013136954;0.13739183954002418;0.018886340376573534;175.0;0.2140451921346228;0.13370149482568186;0.017881831428996586;172.0;0.2117035905355576;0.13091806230402783;0.017153170824179904;168.0;0.22223468259490647;0.12979346104665526;0.016844445007422652;167.0;0.20869113014777038;0.13329562798050248;0.017767547365695278;163.0;0.20935277827555884;0.1385017474943249;0.01917497027632635;160.0;0.21118988712934197;0.1339034745150134;0.017907572932804434;168.0;0.21559041218002123;0.133545982986751;0.01781436127814369;169.0;0.21540342093126114;0.13442340117014004;0.01804611247169612;169.0;0.21604982250983518;0.13420750360855332;0.017995252391577263;169.0;0.21586986133612635;0.12836974755233133;0.016479619347080237;169.0;0.20659939754953185
0.08193273974850163;0.00673457150198989;153.0;0.17363246775070648;12.0;0.07135837444961517;0.005108630734314017;154.0;0.162806457110937;0.06489924601898167;0.004225671407421051;144.0;0.15415429134064973;0.06289040241702443;0.003968102039567726;137.0;0.1489610977708855;0.0619214839814175;0.003846767448597554;145.0;0.1464080796947956;0.060454227725938336;0.003666639969835259;147.0;0.14452291386244495;0.0589847177372159;0.0034905448715467475;150.0;0.1433662901351329;0.07995350027900679;0.006413205555411402;143.0;0.17112082245052257;0.07650781758465319;0.005871226478651467;145.0;0.15820330708610938;0.0787779577705886;0.006222827379628072;142.0;0.15784233437965547;0.07784228866222521;0.006076370268677537;145.0;0.1548219445866774;0.07296915776559644;0.005341463035003578;142.0;0.15252530480692272;0.06889509020151562;0.004761994143797408;142.0;0.1508348537969543;0.06856111610440539;0.004715988851460182;151.0;0.1556904371696246;0.07082824342640445;0.0050330344654714275;151.0;0.1611841920878378;0.06969911508381815;0.004873810248410736;153.0;0.1522972760368306;0.11368011505048628;0.012953265371394468;154.0;0.19490948298504368;0.1129249179985159;0.01278183435950155;157.0;0.18917282210547068;0.11354162298903597;0.012925244985984519;156.0;0.18743249765118938;0.11217880238587716;0.012615065468033591;152.0;0.18533927767357075;0.10937370463599783;0.011996026508791363;156.0;0.1837885884988596;0.10625760508530396;0.011321659348894121;157.0;0.18241840111251312;0.10365607569552968;0.010775379393608443;156.0;0.18087778665336066;0.11318726097205573;0.012838527299882474;153.0;0.2012004740865088;0.10492287942695519;0.011043924419041113;157.0;0.17916061260562768;0.11013897258698074;0.012169233213387068;154.0;0.1807178122409314;0.11702204847770985;0.013737605252518081;147.0;0.1831638998895452;0.11774971336816399;0.01390814701782173;151.0;0.19035388372340095;0.11763850416630602;0.013881894880184906;150.0;0.19009531965018892;0.11841687503981078;0.014065554676873565;151.0;0.1907279720341409;0.11797355977556011;0.013961698144911914;152.0;0.1903781691088677;0.1039168135619764;0.010833016760538081;159.0;0.17758807108451533
0.0479652513732231;0.0023081705085545336;139.0;0.12637359982451354;12.0;0.045022148120199015;0.002033491059481327;143.0;0.11985181207339847;0.04291038218467261;0.0018468973469963129;149.0;0.11449731112534273;0.04319985268290559;0.0018723225944307323;145.0;0.11244036230488487;0.04255439497668649;0.0018167443328535318;150.0;0.10998801270158826;0.04172149999348014;0.0017464616424873263;153.0;0.10820877938707978;0.04068671838772358;0.0016609213023642216;150.0;0.10790778126780268;0.045218035103358915;0.0020508627218405392;143.0;0.12962115883252162;0.06294408592446596;0.003970049063072503;149.0;0.1273598806281651;0.06722996766799094;0.004528767890433885;146.0;0.13105727677518966;0.06604242129542427;0.00437166401009524;152.0;0.13140767956694388;0.06062001299808437;0.0036840470304844194;150.0;0.1266751936362707;0.0505326191696655;0.0025595625614001608;143.0;0.12017637351534322;0.04422901589137393;0.001961773053889591;145.0;0.11849053145137393;0.0426149910465555;0.0018215308271886126;145.0;0.11993298632420132;0.05029389476386744;0.002535482745864991;148.0;0.11574195942533626;0.06580252979961602;0.00433965528841801;147.0;0.15239781877639832;0.06144198143016613;0.0037825382586846694;147.0;0.14568410895876907;0.06075013819061462;0.0036988389503674717;144.0;0.1431150079928457;0.05952907291126562;0.0035517763384683367;143.0;0.1405257265650073;0.05799267436840602;0.0033705453269674253;144.0;0.138972612127247;0.05673964321100435;0.00322558291693292;141.0;0.13830397007819026;0.05537564072505203;0.0030742085971731652;142.0;0.13677463568459283;0.07411152626686428;0.005506696746916022;153.0;0.16186074921991872;0.06019773016600347;0.0036302352248805364;144.0;0.1355610315623935;0.0638987980655018;0.004092320775649764;147.0;0.1365364850553722;0.06957589183681857;0.004853707173174524;138.0;0.1398411874681799;0.07659436970954395;0.005878976342195321;144.0;0.14862399255860134;0.0765568439697993;0.005873308790635413;144.0;0.14853541728831493;0.07707652619765984;0.005951407565048916;145.0;0.1488016054417597;0.07681920732640965;0.005915201607029985;145.0;0.14891536343518028;0.05990703683005282;0.0035950659101680036;144.0;0.13461365425922872
0.06645977548994156;0.00443003352622173;125.0;0.15028230176840424;12.0;0.06250914762339305;0.003918082276117333;126.0;0.14264261408935636;0.059903213632558065;0.003598258289348525;133.0;0.13474723847574563;0.06022644793948098;0.0036372823572615623;137.0;0.13162834455372846;0.060001902997890086;0.00361048144162367;140.0;0.12969372795998335;0.05887651477636564;0.003476507836997002;145.0;0.12810759149597406;0.0574525258011347;0.003310990387591474;145.0;0.12754950403178877;0.06448345476044282;0.004170214847084901;138.0;0.15272740184744527;0.08777624649292229;0.0077286010255406806;142.0;0.14799637431063042;0.08675587082068709;0.007550183070252702;148.0;0.14802287679425719;0.08401092396011077;0.007080438089086215;149.0;0.14689052949622813;0.07806564745383097;0.006113195192835034;152.0;0.14657180829694882;0.06662410641819506;0.004452731731857296;139.0;0.1418975258332279;0.06177554470556995;0.003828272067156272;138.0;0.14284050225515726;0.06139660022113863;0.0037816089956057976;136.0;0.14460800070305058;0.07199248426414846;0.0051959061802931104;140.0;0.13505944482586096;0.0741846843332405;0.005514209348109017;165.0;0.16917055370985817;0.07209534577233662;0.0052075244888663075;168.0;0.16278886213126031;0.07236761937200163;0.005246220448779102;170.0;0.16063081659278186;0.07168178940827806;0.005145569957924759;171.0;0.15883512595705016;0.06962667017519103;0.004855549835188533;170.0;0.15636746603459176;0.06683593748424774;0.004474067081363574;164.0;0.1540331387824696;0.06518833821733513;0.004254910046012588;167.0;0.15195829535875288;0.08190744031826429;0.0067249798529179575;171.0;0.17773735741743174;0.06415728951597702;0.004123867372285879;162.0;0.15100042317315832;0.06595368133739868;0.004358547326468105;162.0;0.15119184140892084;0.06985996433528613;0.0048896963102965;151.0;0.1550124322183518;0.07985516819246943;0.00638866656346208;159.0;0.16273772244927887;0.07971608483888906;0.006367835585058816;158.0;0.16318523953902492;0.08025701675481058;0.00645394309522766;159.0;0.1635050984222239;0.07988667968116783;0.006395273474457265;158.0;0.16338879667827613;0.0629011551379658;0.003964550937012813;159.0;0.149073327662185
0.09033786141969173;0.008186311328102245;144.0;0.1802657293554146;12.0;0.07778205228507114;0.006067731186657733;137.0;0.1675839378017808;0.06704616837434905;0.004507950040160164;139.0;0.15460105923294715;0.06396899438070484;0.004101883114927957;130.0;0.14884562336802282;0.06296793477501263;0.003975108590137994;131.0;0.14621313486317455;0.061094265623891454;0.003741251316189091;135.0;0.14481630694137404;0.059408297359684614;0.003537690246800955;134.0;0.14391803927355154;0.08092261012394597;0.006568091714639935;146.0;0.17293506509328518;0.08005095126572885;0.006422560652196625;141.0;0.15824984780561668;0.07706399449115588;0.005950950450102158;143.0;0.1583107518270478;0.07692693429076197;0.005929465430254641;141.0;0.1577557693956181;0.07885122693713924;0.006229154549106226;145.0;0.16098425303151248;0.07355000107934104;0.00542020074364759;139.0;0.16053961216836637;0.0718063511901118;0.005171092449210938;138.0;0.16207688564039768;0.0732163648979384;0.0053763974391048235;136.0;0.16485506020757412;0.06925666310021433;0.004806739270014907;141.0;0.14673803860634185;0.0904480823350917;0.008189611956759506;163.0;0.18948257433813523;0.08847681444046841;0.007841140498784493;166.0;0.18594997961983348;0.08995090564881236;0.008105605010094545;169.0;0.18555568079185356;0.08944189411449502;0.008015631169324997;166.0;0.1840691273783681;0.08728848835817099;0.007634685440487882;165.0;0.18148808952395853;0.0843308941877515;0.007124818409690981;163.0;0.17889957080392482;0.08217570717228312;0.006765989643315684;167.0;0.17641015103745808;0.09937757441916888;0.009897260325074918;169.0;0.19672603315245196;0.07922813680623808;0.006286796063575288;168.0;0.17291175320534133;0.07992665548501744;0.006399044243551629;168.0;0.17293133941551256;0.08156352123086072;0.0066645219359336046;164.0;0.17449128878257156;0.09169614646958964;0.008426370399816733;162.0;0.18322051585090676;0.09154926835733936;0.00839904467722597;161.0;0.18324143659912157;0.0920771204314298;0.008495624586892441;162.0;0.18413036169359756;0.09169803599215756;0.008428016444752936;162.0;0.18342311563286193;0.07695316817199074;0.0059314736455836365;165.0;0.17111637287033646
0.09634479982107777;0.009308003153522149;154.0;0.1910261493468142;12.0;0.08212917998367888;0.006763326568757295;156.0;0.176276453835433;0.06839096909438068;0.004688455622022841;154.0;0.16008219892698267;0.06368934460770027;0.004066976297859925;146.0;0.15277476631305198;0.06209485752078349;0.0038652055633261032;148.0;0.14887174516487114;0.060573085211040795;0.0036789160434831237;150.0;0.14777804877977063;0.05913790369748342;0.0035068096886599408;148.0;0.14690110892930067;0.08385359544054456;0.007053078221220721;148.0;0.17818611934358225;0.07107011519546592;0.005061921171455866;155.0;0.16250860683589777;0.07560627197206544;0.0057324618329838125;152.0;0.16665962432757694;0.07791312137211538;0.006089276711085647;149.0;0.17022122523074093;0.08081249465963894;0.006551197679955966;153.0;0.17341438868874523;0.07430937790528189;0.005539625105860038;152.0;0.16949550448115655;0.06979049293458998;0.004885610583517257;145.0;0.16571928198610977;0.07098054162811472;0.005054267587764406;144.0;0.16515229499044717;0.06363895655894938;0.004055818358214975;161.0;0.1531583954456852;0.09863521999142061;0.009755520386526302;143.0;0.1952842970288101;0.09741730901561019;0.009516101518938367;151.0;0.1915437348769265;0.09927108840860567;0.009882668080905332;160.0;0.19190281425672043;0.09834924854920825;0.009700177270353987;159.0;0.19029799676957387;0.09665150506549765;0.00936706494622884;154.0;0.1882460125248163;0.09411048813670864;0.008883057986482965;156.0;0.18626379051062178;0.09216892797802655;0.008520519777703645;156.0;0.18389883319396771;0.10611251444655438;0.011285594876348542;149.0;0.1997883324174528;0.0911915183479433;0.008337396756463104;157.0;0.17972642043426704;0.09235318688016725;0.00855225702809813;158.0;0.18061120815370765;0.09412439594977197;0.008884614220869164;153.0;0.18197341337928036;0.10056544310584398;0.010140703516956652;153.0;0.1919132467211672;0.10063965103097786;0.010155714858450314;154.0;0.1921443416066825;0.10114466778206362;0.010257956349468822;155.0;0.19283015460430417;0.10084335039054992;0.010193674124703284;153.0;0.19228500450726005;0.08937553106744033;0.008009296661080858;156.0;0.17930174124400147
0.09674477889974761;0.009390064995264992;153.0;0.1991905389709849;12.0;0.08744829397756944;0.007671704328662134;156.0;0.1865266549626687;0.0783302885738245;0.0061544622979620425;148.0;0.1726268560668287;0.07482257323869229;0.005615255631110652;150.0;0.16590292239620463;0.07362677565765835;0.005436727133301014;150.0;0.16281199861938309;0.07189998320327111;0.005184742826067248;152.0;0.161365345911123;0.07020172562115246;0.004941458133063463;154.0;0.16103622714587526;0.09030228559635467;0.008179696209535752;156.0;0.19211402444945608;0.09457731440185325;0.0089578408855382;168.0;0.17905210165103114;0.09618591492949126;0.009268300911427963;169.0;0.17941439733354425;0.09118688764724413;0.008330888442316175;161.0;0.178683035099914;0.08232366098968986;0.006788764953678169;158.0;0.17618454020903992;0.07241886848458615;0.005253181773291587;155.0;0.17302326301472945;0.06856864847495892;0.004708079883352243;148.0;0.1722474179659681;0.07193996453188271;0.005184792763510467;155.0;0.17357750938382274;0.08118320384080406;0.006599261420105664;170.0;0.17140891636571076;0.1046481180062765;0.010981528869109651;145.0;0.20574459081235275;0.10437025749423287;0.010922738377943757;146.0;0.19757270261874058;0.1059699125598228;0.011259727131865748;155.0;0.19443568182453697;0.10488188161646732;0.01102740603971601;153.0;0.19114217312445456;0.1036349427928601;0.01076279078067811;149.0;0.18911441800020568;0.10168352512870507;0.01036333793533609;155.0;0.18713180331948276;0.10056273323308605;0.01013651346238993;154.0;0.18568396874120668;0.11544938227066089;0.013370378383786815;153.0;0.213512444215718;0.10112004675999316;0.010241388443008464;154.0;0.18562344696220473;0.1018185291331616;0.010381036960026858;155.0;0.18783401776501463;0.1034888129728045;0.010718877936515011;148.0;0.19047241535730183;0.10802262909662545;0.011689947516244269;145.0;0.19700685445611799;0.10819042446156477;0.011724655985085921;146.0;0.19722975817950095;0.10867367308444803;0.011830828944468701;146.0;0.1978642003772522;0.10827801855789167;0.011740681117169235;144.0;0.1973750459193104;0.10110242321324221;0.010239143391953543;154.0;0.18546762515741413
0.11154533727116793;0.012482283720536096;155.0;0.20631804142350116;12.0;0.09644405862412055;0.009330537832219658;155.0;0.19255196915704598;0.0837322690469925;0.007032530785019053;148.0;0.1788417237022064;0.07880152162288172;0.006227874949387948;145.0;0.17146921139209173;0.07679639249518515;0.005915366056432429;145.0;0.16869348217145078;0.0747257470287722;0.005600203680426022;149.0;0.16677807852067975;0.07277481401453492;0.005312299284756045;148.0;0.16644017886344412;0.10935964620529783;0.01199864319756586;152.0;0.20189449391321654;0.10389177832297729;0.01081823243323841;151.0;0.18322681627660636;0.10600871495015594;0.011256046612522205;157.0;0.1843575950918944;0.1031823407173964;0.010664532093600472;155.0;0.18529967371319206;0.0952610209779868;0.009088289300945306;151.0;0.18294632109401598;0.08807295239249431;0.0077733048385116195;145.0;0.18183859953081116;0.08677283671643063;0.00754861804267261;149.0;0.18361438516915435;0.0920888410157731;0.00850538253149227;150.0;0.18724036917535075;0.08768617870907526;0.00770808381544382;147.0;0.17438504054927145;0.11724767324810839;0.013791060060435692;154.0;0.214839739662464;0.11942943670205032;0.014309120407627468;149.0;0.20518199843982565;0.12187546910971805;0.014900248591328769;150.0;0.20042425814006265;0.1211378241422338;0.014720190736607231;150.0;0.1968586896347238;0.11945338611096798;0.014311634155294874;148.0;0.19474002335967466;0.11679541898976477;0.01368433049655168;155.0;0.1929460901720586;0.11509259228052779;0.013287686472565912;154.0;0.19208036651700425;0.12347493956384094;0.015295882741400075;155.0;0.22374041090088587;0.11143553718494867;0.012456473461690987;159.0;0.193275954659079;0.10979782145578658;0.012093176281070695;159.0;0.19522616157005698;0.10998884285120786;0.012135648734702404;158.0;0.19733068951884417;0.11487933413848593;0.013239632446517385;152.0;0.20021798825899703;0.11493411767565662;0.013252604011179324;154.0;0.20052834321772303;0.11529811099822414;0.01333651527820591;154.0;0.20095825843167767;0.11501300005104936;0.013269860719405845;153.0;0.20057879657102054;0.11262325935323202;0.012722615459840792;160.0;0.19283689336934381
0.11091487616274902;0.012341709552644247;150.0;0.2003805014620987;12.0;0.09841820754787249;0.009717621325598056;154.0;0.1880598552017265;0.08886524688536455;0.007922713793616266;152.0;0.17374450616709308;0.0857506255256101;0.007376692482758862;149.0;0.16684605201305455;0.08442568323046727;0.007150612654840518;151.0;0.16470108446229353;0.08271871922877785;0.00686406540894031;154.0;0.16302487270719357;0.08102917544601533;0.006586988419562129;154.0;0.16321238082111383;0.11654381920307298;0.013626719917550054;141.0;0.19855345460717136;0.11102926065930566;0.012367723347627417;141.0;0.18528439708176878;0.10879584476845365;0.01187512845015703;150.0;0.18376727466573672;0.10716470316992008;0.011521778007480717;149.0;0.18160259176188404;0.10797703554469656;0.011697097036189213;152.0;0.18359853840031518;0.10152908847135537;0.010341832704066278;150.0;0.18123923984094753;0.09785366556664564;0.009606578281495276;155.0;0.18176060517192327;0.10152527110970476;0.010341030283465525;150.0;0.1867925518432258;0.09928607653225012;0.009889559335539136;140.0;0.17719887637412995;0.13014360068660952;0.01698879914652089;150.0;0.22164355403966055;0.13281355074233797;0.01769621551644454;152.0;0.21503042174032197;0.1359191217266709;0.01853329910475614;153.0;0.2137823279691395;0.1358019189568071;0.018502185084901958;156.0;0.21255386270480514;0.13410069286380388;0.018041316174321215;156.0;0.21124640791599172;0.13077259380182443;0.017157274068348136;156.0;0.20946958221465622;0.12810665440374222;0.016464949391030954;154.0;0.20788676829814898;0.13373793090168654;0.017935819908019665;145.0;0.22821643680048903;0.12277462819565992;0.015122873123175421;156.0;0.2053006344819083;0.12129869618072947;0.014761373157909223;154.0;0.20584278649439275;0.12162241203698963;0.014840242691967237;152.0;0.20701820334496657;0.12860060498219167;0.01659215317993418;147.0;0.2116336352058064;0.12847544152784343;0.016559887779646516;149.0;0.2119330968854816;0.12916546266043666;0.016738245717358022;148.0;0.21233326233150632;0.12880110355651547;0.016643917945263192;148.0;0.21202510863784507;0.12357592545742144;0.01532057857043109;156.0;0.2056184009066116
0.11541309910772822;0.013343180128238602;142.0;0.20567160078522;12.0;0.10897190155728427;0.011891822693124613;143.0;0.1959976533849455;0.10260802595331946;0.010532203457942887;141.0;0.1830953309809247;0.09991216084572258;0.00998832365222844;148.0;0.17667094293624974;0.0986534845382669;0.009734453643197834;149.0;0.17439344973934395;0.09617252402463654;0.00925364396012238;149.0;0.1726452159356816;0.09409884693514672;0.00885940043084931;152.0;0.17278657594297342;0.10925590356081089;0.011968588734618675;133.0;0.19932306379022197;0.1215244079772688;0.014749404506669962;132.0;0.19306441572031846;0.119694876487615;0.014309127856395064;141.0;0.19138873149179628;0.11598531260632432;0.013430878597192636;137.0;0.18568817234717336;0.11575144209107721;0.013390837521487712;142.0;0.18701891488524558;0.10619322663667789;0.011275436021767159;142.0;0.18399540172817272;0.09812426343562498;0.009631775955320472;146.0;0.18366903911689367;0.09680728481482606;0.009379524004004627;147.0;0.18789618620330892;0.10897818884643985;0.011866596470136324;135.0;0.18617788177444064;0.1337482302527313;0.017945271267120484;151.0;0.22057636946205383;0.1328032398972086;0.01769268452813876;149.0;0.21694667755786917;0.1338586842465884;0.017976578372858765;153.0;0.21661438741936326;0.13258777407644598;0.017636288221731352;154.0;0.21573793951152956;0.13016196736410718;0.016996892000812377;155.0;0.21462288939990856;0.12701312690610322;0.0161833583959107;153.0;0.21283611986585171;0.12442449479308249;0.015529483549353853;151.0;0.21115588419322873;0.1420786717927312;0.02025239622198096;152.0;0.22897376992596613;0.11997158623249515;0.014437569112629327;154.0;0.2053554087492722;0.11965882358461248;0.01436254909101957;150.0;0.20396836338941177;0.12154994702323942;0.014822482052776125;151.0;0.2044096445697173;0.12307916789823868;0.015196571634590128;146.0;0.20654269661373023;0.1226403292369134;0.015089356570585128;146.0;0.20649286753135473;0.12360840938366094;0.015327464201763225;144.0;0.20703078223175422;0.1233244257413649;0.015257059388293423;146.0;0.20685697038831985;0.11897028396970279;0.014198698538168604;151.0;0.20512068696502966
0.10655925758134913;0.011389717534249609;147.0;0.19514113457022048;12.0;0.09861674193972816;0.009754809697526989;145.0;0.18501188967196475;0.09198352683523162;0.008481565681612346;139.0;0.17351429126684983;0.0893975608610321;0.008013070631115398;140.0;0.16741341447620056;0.08824722692383465;0.00780386207622729;136.0;0.1653234601735261;0.08562438668433316;0.007349682850518122;135.0;0.16387116377127292;0.08337637576241101;0.0069674896129412744;137.0;0.16302293422433597;0.09188967447522149;0.008468722333023149;140.0;0.18525214525894787;0.1055181413455705;0.01115718069340395;137.0;0.18044566170121168;0.10639421971985502;0.011344891043937317;147.0;0.1808056848282368;0.10583601597818532;0.0112257599831305;143.0;0.1818770978180873;0.10275278170682109;0.01058249868346236;152.0;0.18322943121100693;0.09270861306035655;0.008612727265257563;147.0;0.1796233831604522;0.08642604874370219;0.00748625929205526;145.0;0.17653125762900349;0.08557577471317883;0.007340398340622597;149.0;0.17804778789135814;0.09334684170970774;0.00873288767722476;135.0;0.1715450780356751;0.14777482368692693;0.021908397876773858;150.0;0.22402920340012783;0.14711681514563554;0.021713638653308494;145.0;0.21840748919568975;0.14775839104627228;0.02190389060317101;148.0;0.21648916018548506;0.14598853708879553;0.021382251701711708;147.0;0.21474854756990466;0.14371954114242808;0.020722459312060796;149.0;0.21329961308669326;0.14019435215405185;0.01971814667359535;151.0;0.21098947715787858;0.13789051924415596;0.019074677967760013;148.0;0.20984436847707147;0.15247853619311935;0.023325420546510385;159.0;0.2315680951602384;0.1339676820092919;0.01800181574824429;151.0;0.20553137066546157;0.1343674913456951;0.01810965410954151;147.0;0.20461860312058477;0.13847915405852626;0.019231162510290976;152.0;0.20622032606844265;0.13604043488670603;0.018563037816893748;158.0;0.21129257563969997;0.13539909359724656;0.01839071889533005;157.0;0.21117557592199745;0.13630277625470794;0.018634542119573015;157.0;0.21143653989921415;0.1358048587189817;0.018499167541842148;158.0;0.21125382586646013;0.13198728890640454;0.017473877670289153;149.0;0.2043812014923898
0.08337320246146798;0.0069738963656302945;153.0;0.17208866374812315;12.0;0.07449014652467369;0.005567180290289083;154.0;0.16307181128201803;0.0702079705274512;0.004945521285329319;152.0;0.15601480815483074;0.06973454519681146;0.004878939443794883;146.0;0.15266527425650464;0.07003195940147511;0.004920696197618714;142.0;0.1523141425288005;0.06920548052573619;0.00480524689403679;143.0;0.1512865299026802;0.06844129246108172;0.004699508694263244;144.0;0.15079233913282686;0.07801407501980356;0.0061052662473034675;143.0;0.16954216884033646;0.08813031574344718;0.007790392425869177;148.0;0.16842595954835754;0.08639983457455022;0.007487610817420294;154.0;0.16867582092566571;0.08503202025695475;0.007249212693364951;152.0;0.1692332827199513;0.08106320073951853;0.006588167134758322;157.0;0.16801485358871898;0.0747914044836392;0.005605043865842012;155.0;0.16480241545393673;0.07356911864884158;0.005424178746379431;150.0;0.16318151843018983;0.07504586545345861;0.005646258916159477;153.0;0.16393137395717097;0.07828384723221084;0.006147403765466529;143.0;0.1589541853450147;0.11217284384173005;0.012623818605056196;153.0;0.17131454565488868;0.1136299150220933;0.012953447054662568;156.0;0.16650759640672314;0.11531945121959232;0.013341366406718937;156.0;0.1647604922050108;0.11506057633365648;0.013281743181715003;151.0;0.16376937936970007;0.11421668715914801;0.013087864827813912;155.0;0.16314442349916863;0.11169352871582756;0.012516106877548427;155.0;0.1615028615949067;0.11018151028181532;0.012179389186016864;155.0;0.1605722067313704;0.1127141650529529;0.012745759327177912;156.0;0.17474005640042067;0.10826387079575965;0.011759376018347433;154.0;0.15851534865497185;0.10920622685763079;0.011964962913927107;152.0;0.15873931692443968;0.11302957349449612;0.012817388696962771;154.0;0.16077333273556368;0.11134811977495689;0.01243888796923052;164.0;0.16606580051696232;0.1108991524806538;0.01233876848738456;161.0;0.16599216653524598;0.11153715445441138;0.012480707996917442;165.0;0.16621592221433215;0.11098900964709009;0.012358669219166542;164.0;0.16561098105711508;0.1069669116223991;0.011479125062089035;155.0;0.1580356633240816
0.11138852447996861;0.012444887255223023;161.0;0.18755592801856064;12.0;0.10057188362241924;0.010146378147577031;159.0;0.1791699814071024;0.09354034371786095;0.008776428988955712;160.0;0.1717706262344676;0.0908751943293314;0.008282880916780132;159.0;0.1688635816186936;0.09007991408325502;0.008138021849545839;159.0;0.16836396757232816;0.08878195764016894;0.0079055452132545;160.0;0.16659416247494432;0.08714717275134404;0.007617267601112921;163.0;0.16611029391090792;0.10424149642571072;0.010898450740820858;150.0;0.18376406094254571;0.11977305640942078;0.014390938052131376;148.0;0.1810124397434411;0.11473832993125864;0.013206014971042686;144.0;0.18175104853020208;0.1094719829718118;0.012021312103598698;149.0;0.1785343311991648;0.10441567939856101;0.010934197601333667;157.0;0.17489841340287468;0.09838624520600511;0.009704627122964929;162.0;0.17246503504639696;0.09495872315277742;0.009042725447231916;158.0;0.17249194230044237;0.09472669822810893;0.008998966804045496;154.0;0.17398211628583266;0.10236268524136141;0.010510479521490047;146.0;0.17238351715819697;0.023000407431793695;0.0005305868619050079;153.0;0.0779029196841559;0.02546028025099135;0.0006503394466416857;156.0;0.07891532516930774;0.027095726409262832;0.0007366200963376983;157.0;0.07835403524301593;0.026790816732161514;0.0007201897874640964;155.0;0.07777104315686172;0.02587829675217957;0.0006717441124663517;155.0;0.07782524746978298;0.024645535320244046;0.0006092202934718935;152.0;0.07867715832995517;0.02401541631867109;0.0005787036171842934;154.0;0.0775528857843805;0.021302083990740003;0.0004548939018631966;151.0;0.07818384794259273;0.025780863878403962;0.0006643713858570262;157.0;0.07535796924303478;0.027016503959182807;0.0007299410223805075;156.0;0.07391788888198289;0.02870408285898135;0.0008218706446644053;153.0;0.07517941609797812;0.030300265655554444;0.0009195775372096739;160.0;0.07746314086442123;0.03024415595873889;0.0009167100472309961;159.0;0.0769013809786391;0.030450237255196574;0.0009292356389434867;162.0;0.07740198722288394;0.030462487798978023;0.0009298215485594356;163.0;0.0764109793546549;0.025154005783449913;0.0006334508682311837;155.0;0.07548868726786498
0.10688613733060666;0.011454776518780695;170.0;0.192318526340334;12.0;0.09563791667574066;0.009171701009688399;163.0;0.18155612763009843;0.0882541307619034;0.007809354381447715;161.0;0.17172184302995813;0.08614890887431202;0.007439240169301729;157.0;0.16780978225829454;0.08568782442268348;0.007359751785974453;156.0;0.166760414081533;0.08460199448856831;0.0071740174553377375;159.0;0.16632422085596413;0.08269257422872187;0.006853284186202295;159.0;0.1655362455646533;0.10157269042365795;0.010344887180309577;161.0;0.18685691938042742;0.11521272981317113;0.013284694759333396;155.0;0.18141528491748338;0.10762144446653481;0.011593351355934976;145.0;0.17996688016452322;0.10339280143335544;0.01070320383133823;150.0;0.178294327684779;0.10058065750172128;0.010137945102817177;159.0;0.17775015154966423;0.0946425728246566;0.008971308428132796;158.0;0.1745716649728346;0.09151652035848219;0.008389068099891796;153.0;0.17468717568894798;0.09261222762568483;0.008593436350101496;159.0;0.17813558187387096;0.1013432905057152;0.010277971881987901;158.0;0.1740818312250551;0.05962140082456169;0.0035659646763987404;136.0;0.12085510904561902;0.05779300223191602;0.0033507547665603296;139.0;0.11979708243572837;0.05740255765644126;0.003305753249793134;140.0;0.12048749511870284;0.0566220839423644;0.003216537773606877;142.0;0.12048815255612325;0.05480665937706278;0.003013587748086823;138.0;0.12003719733398437;0.05251430805890617;0.0027667660519970793;135.0;0.11936621019366253;0.05090141894893867;0.0025993036567895987;136.0;0.11857406888365965;0.06829771155540892;0.004679283876255573;139.0;0.12605160054875256;0.04836809962263166;0.002347118421116122;145.0;0.11575549576183568;0.049028600657605455;0.002411659645804187;143.0;0.11480487183942933;0.050431308827030834;0.002551626858824061;145.0;0.116525268269593;0.0632033145831815;0.00400755397035993;149.0;0.12738818210839378;0.06277236480049675;0.003952894162961303;149.0;0.12657039678106197;0.06325179584186104;0.0040137007749254236;149.0;0.1273085922574137;0.06300850514181268;0.003982810486819797;152.0;0.1271200793617126;0.04696243710857012;0.0022126080193190195;142.0;0.11474833186836683
0.09125091437786323;0.008353758753700233;168.0;0.1958412884509385;12.0;0.08064606266717926;0.00652482177380584;162.0;0.18301485526220793;0.07330483888282498;0.005391014456941721;159.0;0.17109216201068164;0.07177414553195202;0.005168380784348752;150.0;0.16559176373283765;0.07134285448917062;0.005106448549408679;148.0;0.16274630806383214;0.07007973715791808;0.004927195765940391;149.0;0.16194225519769273;0.06848130694526952;0.00470496392506496;146.0;0.16067096797545044;0.08955863363385788;0.00804673166792202;165.0;0.19130433850310727;0.09521914793009631;0.00908421559201819;161.0;0.17923993417770465;0.09160170950297933;0.008410785992463385;157.0;0.18069681977963875;0.09045062815979338;0.008203869914019744;157.0;0.18205433302856536;0.09085110397487313;0.008279307618301876;162.0;0.1828410433572749;0.0822620719008582;0.006788330450294827;161.0;0.17823933925155144;0.07730090293783534;0.00599448915707171;148.0;0.1768366554274018;0.07821842969598429;0.006137979616366143;159.0;0.17966984713025608;0.08537053094968698;0.007307096620662672;160.0;0.17110462344867758;0.08217462854369946;0.006766177246940842;126.0;0.167770068676708;0.07908187435275348;0.00626407222267906;131.0;0.16225884369180338;0.07889222704054923;0.006232126030967568;131.0;0.15948535016636925;0.07773516578633193;0.006051740649397075;130.0;0.1575325629146964;0.07543164683605409;0.00569731641193083;127.0;0.1552864869984265;0.07256471545298493;0.005272683388124144;125.0;0.1528893160451036;0.07086453907023021;0.005028838844057008;128.0;0.15172005517321213;0.09195532923776682;0.008475262167669232;138.0;0.174713665013162;0.0658125131041759;0.004336703035456254;132.0;0.14952162283632037;0.06601955042245634;0.004363130693434289;129.0;0.14866516315694783;0.06673454764845947;0.004459477713482171;136.0;0.14922462418257984;0.07920498480091746;0.006280029562229454;144.0;0.16180425927184117;0.07889470719978367;0.006228187624340318;142.0;0.16172828712948462;0.07941655673442917;0.0063122990810495294;141.0;0.16231326676076221;0.07896070941922814;0.006236677158250083;143.0;0.16184264020473318;0.06251668646697574;0.0039123598640977185;133.0;0.147193283343756
0.10925876954251626;0.011971024986428803;165.0;0.21376835102431463;12.0;0.09841522400422219;0.009712870340027498;159.0;0.2005237128779625;0.09038413059187236;0.00819283198383912;161.0;0.1845605607005822;0.08838890139699529;0.007835831247683462;156.0;0.17622227885544747;0.08816930348040444;0.007795681112334471;156.0;0.1718562409740875;0.0856771737648736;0.00736057835232106;156.0;0.16845518304963308;0.08311759681742974;0.006927062032233361;153.0;0.16623270518991776;0.10227384191070414;0.010487057633263042;168.0;0.20430784470412458;0.10287384097769037;0.010615569874872735;167.0;0.18119519261968134;0.10341803829841727;0.010726244208460238;166.0;0.1837495285951583;0.10242406032619943;0.01051571094928794;166.0;0.1845461573681379;0.10154304793917453;0.010329428166729814;165.0;0.18526773929291587;0.09553847201178166;0.009142315988453283;166.0;0.18248939822224802;0.09140877904999081;0.008372175321341319;155.0;0.18182012453273547;0.09121724285026435;0.008339701939837994;160.0;0.18608814001727292;0.089550935065151;0.008045369880319432;160.0;0.17217876620816644;0.09574395083724474;0.009189856379525931;143.0;0.1836913300426616;0.09205975059635182;0.00850024715648111;145.0;0.17687996868893738;0.09293610024618003;0.008663691287745474;145.0;0.17392422131173396;0.09128595785640288;0.008359162435267338;139.0;0.1714922806605145;0.08839471007068112;0.007838022239817688;139.0;0.1685173038724003;0.08440108704302376;0.007146177666625767;141.0;0.16613147094763442;0.08163779739321957;0.006686132847737557;139.0;0.16404751765200454;0.09807628004029471;0.009644470909610951;154.0;0.1886915440669547;0.07703006486068387;0.005952058550427769;139.0;0.16251204472385766;0.07699975951224475;0.005948009424647715;136.0;0.1619190108733326;0.07823248302004374;0.006139482177261526;141.0;0.1620292224073012;0.08544497974657637;0.007323093194075956;146.0;0.1681521963833626;0.08534450934429148;0.0073059246562747655;146.0;0.16838074255575886;0.08585728082922155;0.0073939691929902265;145.0;0.1689579784211435;0.08549162494687912;0.0073319067700326245;145.0;0.16829703504830015;0.07357043213591032;0.00542988199701524;139.0;0.15980597578367745
0.10943281747341842;0.012012217421124394;157.0;0.21619035898225983;12.0;0.09786763740117099;0.009608898266839352;158.0;0.20315775177534345;0.08868773958715494;0.007891044065151462;156.0;0.18770738453812263;0.08660416195730461;0.00752434397943666;152.0;0.17847187487597474;0.08640493957862985;0.00748999840835769;155.0;0.17483626265403326;0.08423058409184535;0.007117851692525134;156.0;0.17111759489733566;0.0818420001332469;0.006719572107729136;155.0;0.16922655708817866;0.10606424762609491;0.011285013628959261;155.0;0.20820678555763739;0.10638762963534978;0.011346906833965189;158.0;0.17945039011124264;0.11051609694723484;0.012246791746631194;154.0;0.18216631092062258;0.109140516204701;0.011945995622042151;158.0;0.18314404225982003;0.10246316673295429;0.010529928751161752;152.0;0.18409431517635746;0.09420323405658662;0.00889872110747439;149.0;0.18284133969041969;0.09030883836233035;0.008174625925446965;144.0;0.18310000600371004;0.09028079906509508;0.008170088958718617;150.0;0.18678930357877507;0.09133216281972885;0.008364260579998712;156.0;0.1721862978686898;0.1046909322639978;0.01098467398199327;153.0;0.18430742069441083;0.09934841205677791;0.009894369999746667;155.0;0.17791207854573446;0.0993430608719242;0.009890071786070919;155.0;0.1766707696556351;0.09679615519357124;0.009387790504110158;145.0;0.17597883000746267;0.09384137920799603;0.00882220030352405;151.0;0.17453786927725684;0.08994387663500841;0.008104245300998214;154.0;0.17339347836702124;0.08687128603414926;0.00756030227707486;149.0;0.17141747517463696;0.1062230805569345;0.011315699476206729;151.0;0.18655065109610214;0.08297977609665382;0.0068991201773714;149.0;0.17066061700421117;0.08453375745092491;0.007160844966254149;147.0;0.17117107262365644;0.08782384258142853;0.007728499266561347;146.0;0.1709486985271052;0.09318631766813928;0.008697666319008;152.0;0.17315776749182912;0.0927361279541296;0.008610889400092378;152.0;0.1729774178760621;0.09323441912437812;0.008705658447940768;151.0;0.17336974255451057;0.09308488477402013;0.008677863956222925;149.0;0.173179984409502;0.08056594768001173;0.006503780397445594;146.0;0.16864351939633376
