rms_s1_ch1;var_s1_ch1;zcr_s1_ch1;wl_s1_ch1;rotule;rms_s1_ch2;var_s1_ch2;zcr_s1_ch2;wl_s1_ch2;rms_s1_ch3;var_s1_ch3;zcr_s1_ch3;wl_s1_ch3;rms_s1_ch4;var_s1_ch4;zcr_s1_ch4;wl_s1_ch4;rms_s1_ch5;var_s1_ch5;zcr_s1_ch5;wl_s1_ch5;rms_s1_ch6;var_s1_ch6;zcr_s1_ch6;wl_s1_ch6;rms_s1_ch7;var_s1_ch7;zcr_s1_ch7;wl_s1_ch7;rms_s1_ch8;var_s1_ch8;zcr_s1_ch8;wl_s1_ch8;rms_s1_ch9;var_s1_ch9;zcr_s1_ch9;wl_s1_ch9;rms_s1_ch10;var_s1_ch10;zcr_s1_ch10;wl_s1_ch10;rms_s1_ch11;var_s1_ch11;zcr_s1_ch11;wl_s1_ch11;rms_s1_ch12;var_s1_ch12;zcr_s1_ch12;wl_s1_ch12;rms_s1_ch13;var_s1_ch13;zcr_s1_ch13;wl_s1_ch13;rms_s1_ch14;var_s1_ch14;zcr_s1_ch14;wl_s1_ch14;rms_s1_ch15;var_s1_ch15;zcr_s1_ch15;wl_s1_ch15;rms_s1_ch16;var_s1_ch16;zcr_s1_ch16;wl_s1_ch16;rms_s2_ch1;var_s2_ch1;zcr_s2_ch1;wl_s2_ch1;rms_s2_ch2;var_s2_ch2;zcr_s2_ch2;wl_s2_ch2;rms_s2_ch3;var_s2_ch3;zcr_s2_ch3;wl_s2_ch3;rms_s2_ch4;var_s2_ch4;zcr_s2_ch4;wl_s2_ch4;rms_s2_ch5;var_s2_ch5;zcr_s2_ch5;wl_s2_ch5;rms_s2_ch6;var_s2_ch6;zcr_s2_ch6;wl_s2_ch6;rms_s2_ch7;var_s2_ch7;zcr_s2_ch7;wl_s2_ch7;rms_s2_ch8;var_s2_ch8;zcr_s2_ch8;wl_s2_ch8;rms_s2_ch9;var_s2_ch9;zcr_s2_ch9;wl_s2_ch9;rms_s2_ch10;var_s2_ch10;zcr_s2_ch10;wl_s2_ch10;rms_s2_ch11;var_s2_ch11;zcr_s2_ch11;wl_s2_ch11;rms_s2_ch12;var_s2_ch12;zcr_s2_ch12;wl_s2_ch12;rms_s2_ch13;var_s2_ch13;zcr_s2_ch13;wl_s2_ch13;rms_s2_ch14;var_s2_ch14;zcr_s2_ch14;wl_s2_ch14;rms_s2_ch15;var_s2_ch15;zcr_s2_ch15;wl_s2_ch15;rms_s2_ch16;var_s2_ch16;zcr_s2_ch16;wl_s2_ch16
0.0827810005394579;0.006855705304335855;160.0;0.11188882434255425;12.0;0.09010172462445842;0.008121952225712771;159.0;0.11642343464067055;0.09679842531527821;0.009373352765271386;154.0;0.12058589375922382;0.09885984001278067;0.00977573533203477;149.0;0.1225169729089449;0.09830562111717216;0.009668876102586602;142.0;0.12210422257988209;0.09579449311055936;0.009186952419672406;138.0;0.12187732346912594;0.09107322822815059;0.008306027163449152;139.0;0.12035445145647179;0.07828156383806165;0.006129460587061014;155.0;0.10977715924199684;0.08737455677368008;0.007644407013101623;143.0;0.11276370618399255;0.0943099076346239;0.008904239117700313;147.0;0.11645370919977463;0.09599645398312222;0.009225578191030934;147.0;0.11702596315312216;0.09387409803564954;0.008824182850511512;142.0;0.11709844755742399;0.08988618925799838;0.008092228737830649;145.0;0.11769670089752421;0.08687803761213922;0.00755924722901309;140.0;0.11740668540981478;0.07896938360492471;0.006242587257328917;145.0;0.11390970453851725;0.08105554067197232;0.006580756871263734;149.0;0.11103350837771844;0.09010059647086877;0.008140227101408172;151.0;0.14227446062753787;0.09468217857702946;0.008991168645222404;149.0;0.14493616385091143;0.09755469146251586;0.009545280898063922;157.0;0.1447666105570966;0.10470306340322552;0.010993807227500907;146.0;0.14422595730838125;0.11310838915418249;0.012830409779879684;146.0;0.14675412686918154;0.1152342128129864;0.013316047107861917;148.0;0.14646516851102578;0.11237257452362272;0.012661481432823325;152.0;0.14535413426681612;0.08239455590359536;0.006806234967728559;157.0;0.13628649386804065;0.09755416038235389;0.009525171754568705;145.0;0.13316671338045158;0.1020038387162719;0.010414173550552415;148.0;0.1349156957585103;0.10493681201349477;0.011023765147253698;151.0;0.1371570318390831;0.11041908766630712;0.012207531764873969;148.0;0.14093864568447698;0.11638240906873049;0.013567001910509907;143.0;0.14537394676267906;0.10675832158002874;0.011406978576183394;141.0;0.14198924148487657;0.09292072765741845;0.00864728252810929;140.0;0.14399011127771258;0.09155364207182315;0.008390336286410949;152.0;0.13088796552921286
0.13954614945534477;0.019535089872143554;155.0;0.1667820839697411;12.0;0.15218479933623943;0.023234238427998637;151.0;0.1733629422666456;0.16208867017243825;0.026356433832629388;150.0;0.17763776257104005;0.16584931854498908;0.02759488018510478;142.0;0.17858018566812742;0.16677956907735603;0.02789989548558975;133.0;0.17808880316129527;0.163886756486825;0.026940353838471025;132.0;0.17546542219738237;0.15926525505143524;0.025439420456222217;132.0;0.17236510034733393;0.1302334088822051;0.01701433027488066;152.0;0.1604804024198623;0.13826675210824688;0.01917932996559788;129.0;0.16187199886878778;0.14473671188997553;0.02101696960936967;141.0;0.16465814274601573;0.14693749400442951;0.02166104520444916;143.0;0.1642461776119543;0.1481219457485362;0.022010791458640808;139.0;0.16585809324301376;0.14618239764001228;0.021438506375352405;140.0;0.1675413542881503;0.14427222039278254;0.020882689453754533;131.0;0.16806232848559555;0.13063492941264723;0.017121276427778786;136.0;0.16438198152718678;0.1337405409116375;0.017943124046378055;133.0;0.1591091502157874;0.11804172657069859;0.013979232192234283;140.0;0.16553170161156874;0.12701336475153865;0.01618508489573655;136.0;0.17077332381653915;0.138342120385645;0.0192009818568301;137.0;0.17466259509880433;0.15199798385967375;0.02317701007561278;135.0;0.17972125020154553;0.16112152636722854;0.02604409621556593;137.0;0.18308989857478863;0.1605180985737383;0.025849549767013227;136.0;0.18249070516097995;0.1526178170690573;0.023367282086320714;137.0;0.17863328895025993;0.11052349705234768;0.012255117387489156;150.0;0.16180160791079712;0.15934466381239748;0.025424594282542876;141.0;0.16700268889164444;0.16078064132246933;0.02590637268360243;136.0;0.17236711724297762;0.14931670229659705;0.022360398962309836;137.0;0.1745391189988466;0.141988589457353;0.020226127029904745;131.0;0.1707896916319936;0.14297747350892495;0.020509342669228596;127.0;0.1699148381503388;0.13408350344071485;0.01803683958727707;124.0;0.16611678278021405;0.11808711415727728;0.013989585581994462;120.0;0.16893738044320994;0.14242559937197807;0.02031988218063415;133.0;0.16161513783441386
0.14991577593795105;0.022540663945353517;152.0;0.19237155114485566;12.0;0.1631667118196631;0.02670678372943542;153.0;0.19860475946774417;0.16938617360402095;0.028779371779219343;154.0;0.19874608168931637;0.1717212051196774;0.029578336144895575;149.0;0.19648731120908244;0.17384660364984553;0.030301035032395236;146.0;0.19559908961532374;0.17271181516415085;0.02991665086265758;149.0;0.19420918760357497;0.16901395918363277;0.02864749832413996;148.0;0.19156025252104994;0.13839233639850487;0.019207049862762105;153.0;0.1841548555452117;0.13765023084984868;0.019002804734281963;145.0;0.1809002890848228;0.14127475153840727;0.02002006421767912;150.0;0.18243337931005948;0.14246433792179633;0.02035708796688538;145.0;0.1821706481588093;0.14359833604679786;0.020681747831468214;142.0;0.18349631806007438;0.14445875245156695;0.020933075702807155;142.0;0.1856858871771918;0.14411007352159425;0.020834440411172855;136.0;0.18604453308260516;0.13249192159664394;0.01760776313964216;144.0;0.18231878416470948;0.1341154406501704;0.01804250448824047;148.0;0.1780576094700711;0.12780920015582736;0.016384602744633995;135.0;0.17894359494497145;0.14058937684475484;0.019827081938129102;132.0;0.18669828121484638;0.1456527531954263;0.021278541585205472;135.0;0.18889749466541947;0.14656344620276193;0.021546499445843102;143.0;0.1885417895689097;0.14723358011623472;0.021739300268969006;146.0;0.18766130910217155;0.14229153896677793;0.02030050522827743;141.0;0.18422540880583188;0.13238691487523632;0.01757346865273665;139.0;0.1776602206294202;0.10893028369486187;0.011900786805659369;140.0;0.1680364492287766;0.15765369423863973;0.02487204376736495;158.0;0.16644089859383973;0.15243716021348502;0.023253283450258514;157.0;0.16988047822450578;0.13061301516305068;0.017070726161829235;143.0;0.16954431274960283;0.1173431503072626;0.013772208704346813;139.0;0.1657658311904228;0.11633899277214224;0.013545358226831781;139.0;0.1655369667199749;0.11273897842235409;0.012715345721644834;134.0;0.16652940357365717;0.10239757863150518;0.01050263178174756;133.0;0.16804821976329137;0.13886505479969516;0.019285852072710385;156.0;0.16149533887443238
0.14199818739306616;0.02018034683561853;161.0;0.20346245148633899;12.0;0.15482988171835554;0.023976031408584304;159.0;0.20810670310501592;0.15705545336186252;0.024666740901207525;157.0;0.20652303399871208;0.15490729300600448;0.02398956666246284;156.0;0.2035625377150997;0.1543239344671034;0.023827341479057892;156.0;0.20227438674389991;0.15198375735328915;0.023084890163891578;159.0;0.2006837255818719;0.1481481462106874;0.02194408445722753;161.0;0.19931222997208226;0.12779950841468998;0.016345961079401627;161.0;0.19711170638195563;0.12378404679144002;0.0153442438013362;168.0;0.19266631000686554;0.12585783263877515;0.015852912222863644;165.0;0.19394788393423124;0.12620808878916936;0.01594380460386788;152.0;0.1930807783913545;0.12557465724066902;0.015768811559625968;150.0;0.19237070131610476;0.12746875890801176;0.016249368048459827;152.0;0.19322770556233618;0.12784031762889286;0.01634044902046313;153.0;0.19332384046962636;0.12152269272241492;0.014770099936732181;158.0;0.1917021558500353;0.11990946559901007;0.014386691353998124;170.0;0.19042339974859968;0.12182192503953711;0.014887608564083003;142.0;0.18385170438261522;0.13188151296380035;0.017448938591047052;143.0;0.1887675212420574;0.13092767548113093;0.01719561279571358;144.0;0.1888220031550178;0.12528632090518094;0.015746154109885398;150.0;0.18455478146159507;0.12174870646149168;0.01486904112010433;156.0;0.1815952724625747;0.11376791661926722;0.012982059211082397;152.0;0.17597060454838553;0.10394085053584862;0.01083545179049734;149.0;0.1690807131747534;0.09315156755162123;0.008705074285992419;137.0;0.16655246749491312;0.10435865126233107;0.010878280752934958;156.0;0.1595364254638967;0.09881046968150249;0.009764792215456085;160.0;0.16134021333647425;0.08720520106524315;0.007617940632624319;153.0;0.16042387703625777;0.088317313961552;0.007818586122813054;155.0;0.1612673503418545;0.09538982786796271;0.00912146285187937;158.0;0.1649150514543472;0.09575739355877314;0.0091945888453929;150.0;0.17027835566127117;0.08626743873361552;0.007461848978609011;144.0;0.17037368564473165;0.09565982258292706;0.009138564146465168;160.0;0.15497082151872582
0.13719934858794797;0.018884469785198966;154.0;0.20483463900786758;12.0;0.14755203174184825;0.02184238348861435;150.0;0.20886080252572475;0.15107642510756908;0.02289861422646437;147.0;0.2100960458574707;0.1506971506967042;0.02278375416960633;147.0;0.20930452745891076;0.150891853055989;0.022842688268496752;149.0;0.20836325489436391;0.1491510036390844;0.022318304239893578;151.0;0.20580030867417703;0.14638120252423067;0.021497325928056112;150.0;0.20361778809703124;0.12648590812458277;0.016050749407207632;158.0;0.1999480555204472;0.12092854154721996;0.014669573100725884;155.0;0.19594963043627794;0.12243722658421202;0.015037565497698576;152.0;0.19683425987650113;0.12352391842817595;0.01530502466655556;147.0;0.19607478719499913;0.1255484686413489;0.01581320696152594;146.0;0.19484147971968674;0.1280365002907516;0.01644593228749879;146.0;0.19532526845519688;0.12861789310994476;0.016595393709302984;147.0;0.19529442022954535;0.12286834914464743;0.015144567806268027;150.0;0.19552117396249286;0.11985638111487788;0.014412178190755633;156.0;0.19460950470532096;0.11043206749614595;0.012224828886711184;155.0;0.17570596194286348;0.11822913306525948;0.014007641081857512;150.0;0.17965501989467186;0.11864116633083163;0.014108763855998725;147.0;0.18107074705736326;0.1158099281425664;0.013441169573213414;148.0;0.17894394572178018;0.11307459284220803;0.01281483638976365;159.0;0.17680130597790863;0.10588677329691348;0.011239787846767985;159.0;0.17239128058643463;0.09779471617435208;0.009588344902632287;157.0;0.16762330147264337;0.0859380738974396;0.0074022572483714195;150.0;0.16333679140662608;0.07949230349847779;0.006312862803367452;148.0;0.1549338059797294;0.07690914863192254;0.005907769695800549;152.0;0.15561939503212424;0.07314685193259925;0.005346875435348135;151.0;0.15412987655785315;0.07639312329131866;0.0058389150807406495;154.0;0.15500165991520948;0.08397882914918402;0.007059125160616102;155.0;0.15973399392173562;0.08798738025227303;0.007749692616182161;150.0;0.16611677754862855;0.08222059698927289;0.006774073967830947;146.0;0.16624695321890617;0.07770683331517733;0.006035273932600539;152.0;0.14999439752217342
0.1218412344920038;0.01488632256809804;149.0;0.1867072475152202;12.0;0.13154938606901612;0.01735338752218084;148.0;0.19405592232303337;0.13532498394254092;0.018361357934334882;145.0;0.19706838559272213;0.13505221382557528;0.018294116514666784;144.0;0.19608786642262058;0.13562687029801754;0.018448727775341046;146.0;0.19512772069663198;0.1349320078671419;0.018259313812974336;148.0;0.19258308913216796;0.13270329484740961;0.017662329513675967;149.0;0.19001340738451275;0.11196550943240523;0.012570099034325932;152.0;0.17982141920841227;0.1016871021342945;0.010363343560410852;157.0;0.172824471620087;0.10450446137492658;0.010948235783761112;155.0;0.17329866052345125;0.10526136027698153;0.011104376269721043;151.0;0.1733751909838199;0.10522790000969849;0.011096546244090684;143.0;0.1734784130710923;0.10574039013748437;0.011206318458476345;142.0;0.17481759140116276;0.10535997414321414;0.011128286654087802;141.0;0.1744008905908306;0.1018311901691305;0.01039312501386083;146.0;0.17406284824272;0.09988877457706989;0.01000313982922187;158.0;0.17177324790320758;0.11181872686899574;0.012544406657086964;166.0;0.16924420034439971;0.12627762265372003;0.015998225724206498;165.0;0.17591885089295908;0.12655785760965882;0.016069268103877005;165.0;0.17990961680496356;0.11803032911199264;0.013976623812457881;160.0;0.18021583334349275;0.11167271830321457;0.012511491236929653;160.0;0.17737205271331946;0.10487471783283937;0.011034618000850191;156.0;0.17306388456680386;0.09679126174461558;0.0093991646188426;152.0;0.16753688227089572;0.08358987694739875;0.00700967814123553;157.0;0.16040715584588214;0.07788731316122983;0.006086365644249906;147.0;0.15132571262171574;0.07505563299732201;0.005651626757386892;145.0;0.1496948676115179;0.07116780059907447;0.0050813646707850895;143.0;0.14808247270446323;0.07398976491357735;0.005492543554869228;148.0;0.15107173779962513;0.07988708264184147;0.006402863046288185;150.0;0.15690616759743237;0.08127506868620944;0.006627152057317314;151.0;0.15990125373122885;0.07907040302839108;0.0062725622202505936;144.0;0.1596391783666651;0.07601828855220591;0.005797668522122679;156.0;0.1491916552012294
0.09690010907279734;0.009418661493929332;149.0;0.17069714952268708;12.0;0.10756513685107591;0.011604216227683288;146.0;0.17846599526419651;0.1128386466430713;0.012770284282356775;136.0;0.18301954110998184;0.11386374991619318;0.012995030162043349;137.0;0.183332787483489;0.11483254198998627;0.01321450025324457;138.0;0.18281558237132983;0.1145907450414964;0.013160298129633314;146.0;0.18039462862756603;0.11208222424115094;0.012589914065902819;151.0;0.17690509618436434;0.08525078744593886;0.007289535304223097;142.0;0.16444931987280137;0.08739662203976588;0.0076629349247186365;147.0;0.16141558384432733;0.09139525840919835;0.008380161781614541;146.0;0.1626799682994235;0.092343440077508;0.008555193363205964;144.0;0.16277225273112703;0.09178728997147476;0.008452042567870693;138.0;0.16304790545118325;0.09207709868299317;0.00850444258273994;135.0;0.16516474642742623;0.0917509017206599;0.008443754910515465;137.0;0.16606650292541472;0.08726367456521156;0.007638923613782926;137.0;0.16652405559698763;0.08349370968219458;0.006992495910354134;149.0;0.1599596427830628;0.10275811847923462;0.010575956594975656;157.0;0.16896046425431818;0.11937366798704768;0.014269341159135559;164.0;0.1771506292139991;0.12794306150234033;0.016385287879561873;163.0;0.18208614160856612;0.13257645399378978;0.017589110733982602;155.0;0.18402953094443394;0.13416899007988334;0.018019763084609796;156.0;0.18231218349171704;0.12703471944515984;0.016157807086553157;151.0;0.17732598643605318;0.11439849034518634;0.013100754130480612;149.0;0.1693529663976802;0.07846844590352747;0.006165509845680951;148.0;0.15785196029300644;0.07181111133082656;0.005163396953880836;150.0;0.15141384576158795;0.0696779938394432;0.004858388349227785;147.0;0.15054066222639237;0.06870461953730203;0.004724420414263247;141.0;0.15026163059857603;0.07306550946050269;0.005342478220258889;144.0;0.1527367611621608;0.07865231896044354;0.006190042168777093;148.0;0.15566495771140365;0.0758820161352015;0.005758385434658042;150.0;0.1556587715589904;0.07297843755083148;0.005332753186100811;139.0;0.15507775281687672;0.07198919249938592;0.005185632654559581;152.0;0.15057301063057388
0.1191981480099998;0.014249527462477863;148.0;0.1829295903609393;12.0;0.12660904634509496;0.016078999867315192;149.0;0.18791857475677862;0.12681252429177203;0.016125887482079035;141.0;0.18958443003529074;0.12668810630833935;0.016096696287284683;139.0;0.18758189940513173;0.12870025227377666;0.016613286248737893;137.0;0.18592251121950357;0.12999069405321714;0.016948408170876443;139.0;0.18345706383177007;0.1282016431614878;0.01648578477093564;140.0;0.18060478729649984;0.10488333741353688;0.011031631789378597;138.0;0.17491930582243523;0.0981598082205149;0.009665037050575554;143.0;0.17217400919471784;0.10143083290313405;0.010319862965714311;143.0;0.17368203222809;0.10289413438368311;0.010619993434074696;147.0;0.17427982687184587;0.10229831395961027;0.01049817264979578;146.0;0.17257499087063313;0.10232003975598028;0.010503098932535874;145.0;0.17336607225803097;0.10300396075833028;0.010642592486734938;149.0;0.17500696997168472;0.09914752338777072;0.00985926256850639;140.0;0.1752076602240687;0.094696553741593;0.008996420097474344;145.0;0.1690005271491249;0.0784447765557914;0.00616054085561949;148.0;0.16562774197602012;0.09384002908159027;0.00881453073537647;154.0;0.17327171698062324;0.1107973998163719;0.012290317730576655;147.0;0.1790634359478094;0.12523449622683944;0.015710469055557792;136.0;0.18046369230650267;0.13110515289964086;0.017221938466473727;142.0;0.17965493164630802;0.12500187319700184;0.015658359513899406;142.0;0.1742336044737973;0.112148286461499;0.01260511648815275;139.0;0.16713171598894908;0.06684969944863932;0.004477835780169512;147.0;0.15637570588984548;0.06544298658523365;0.004285772983281991;155.0;0.15217235874629445;0.0644268553468002;0.004155610062934023;153.0;0.15261308584336403;0.0653893083789121;0.004283695389943808;145.0;0.15249342268330304;0.07034248369754265;0.004958296754462676;146.0;0.15475422919438175;0.07577873275451938;0.005755206328346454;153.0;0.1568383666305428;0.07286794424275383;0.005320234013623015;154.0;0.1569719529924637;0.06815822518907828;0.004656221250572397;154.0;0.15704215709806593;0.06610070992366805;0.004371260755300814;153.0;0.15096964845945043
0.14080839767143985;0.019863676213491367;144.0;0.18973732667506749;12.0;0.15090368774837887;0.02281259439147813;144.0;0.1941773488498162;0.1504602832335897;0.02266259315548347;143.0;0.1931948569486491;0.14747253667790075;0.021770160034928515;143.0;0.19012472432016886;0.146009631784376;0.02134395369077851;143.0;0.18817106061099828;0.14509774224346114;0.021082829085741453;138.0;0.1866460643338555;0.14290284786376847;0.02045561022273704;133.0;0.18565467737822647;0.12035990111076596;0.014511701595260395;140.0;0.1788814677128104;0.10962244016278938;0.012053913313002434;145.0;0.17544567668658664;0.11198646016772149;0.012581602556119625;143.0;0.17568835236315392;0.11232001991897386;0.01265636122705906;148.0;0.1760850981240424;0.11032717808035337;0.012209297452246913;148.0;0.17418170524050697;0.10949336755708916;0.012024427739028176;150.0;0.17435709585911421;0.10821154281454275;0.011743482140909813;152.0;0.17466067838572208;0.1038022170712775;0.010807166646633622;143.0;0.17192035121236884;0.10702643947803678;0.011489705905292056;143.0;0.17299397390266572;0.0757163219835577;0.005751107011119841;149.0;0.15829007053655234;0.08856962748740685;0.007868980865056132;161.0;0.16341214803258308;0.09904412068287387;0.00983846043931377;162.0;0.16769663596622536;0.10480405239938761;0.011014731348419411;151.0;0.16631058879844154;0.10595092584991563;0.011253535698162707;148.0;0.16424060992561323;0.10089947414422773;0.01020422116046578;144.0;0.1592673670372525;0.09168105617111066;0.008424333108360656;140.0;0.15478692125883;0.06168322140768553;0.003817104422675555;149.0;0.1492621419265446;0.05914360821994013;0.0035060854000523623;141.0;0.14298650474897265;0.05916363375667325;0.0035089268046341084;139.0;0.14348136132519096;0.059632982321868165;0.0035644394700763155;142.0;0.1434773155691122;0.06311581143005408;0.0039931882819020945;148.0;0.14575411835887564;0.06662641721624997;0.004448356792668248;156.0;0.148124570745761;0.06583676603306153;0.004344641528950869;146.0;0.14869370264048523;0.06635008782785348;0.00441599695235973;151.0;0.1521940013557013;0.05847755558583311;0.0034289598211860416;138.0;0.14170338863617726
0.1808127968133637;0.03279696053008909;156.0;0.19898550160550524;12.0;0.19561901233640522;0.03838987259844741;153.0;0.20400012991683394;0.20411336724080545;0.041796909028591706;155.0;0.2048345393378651;0.20489040626929544;0.04211305236954937;154.0;0.20397869301051574;0.2036536654132083;0.041606361602557894;158.0;0.20319716565976134;0.2005727004076178;0.04035680631321202;157.0;0.20351313356252923;0.19267616499268092;0.03723784894140522;154.0;0.20194790648607383;0.1672706366989827;0.0280665777722114;151.0;0.19181526367012286;0.16968056841520704;0.02888406005489594;146.0;0.19680540744607614;0.17997204240696316;0.03249339826156277;144.0;0.19969160021770907;0.18416709307105597;0.034027608253805054;145.0;0.200434707544122;0.18415629178368825;0.03402303541016611;145.0;0.19896670458418123;0.18359586677489578;0.033816923810389275;144.0;0.1997870171751144;0.18087176214989767;0.03282113884260744;145.0;0.19909207593765124;0.163215232404879;0.026726116553438522;148.0;0.19033502893793627;0.15637829849682025;0.024534313916151664;144.0;0.1904285444946184;0.06734001840422732;0.0045397145701508365;147.0;0.13195562636724148;0.0730115823746202;0.0053332764167929115;162.0;0.1345749513840547;0.07726595194073296;0.005968428420357981;170.0;0.13706277213398274;0.08099235579015514;0.006554621131687754;166.0;0.1358957264486032;0.08350619392610076;0.006964278081470065;163.0;0.13498713434221576;0.08134111879026637;0.006602847605113019;151.0;0.13279042005004787;0.07664681435978057;0.0058655208235325156;150.0;0.13112064403827578;0.05713895916289846;0.0032640943922310323;139.0;0.12589622484628146;0.056240051594604865;0.0031553263507233453;134.0;0.12211727415749327;0.06182394636720285;0.0038154980154863267;132.0;0.12533489983833984;0.06451739150873953;0.004161810768153325;144.0;0.1270668156053922;0.06401545158109936;0.0041007802616447936;155.0;0.12984093052703954;0.06491806118731105;0.00421644555726651;158.0;0.1325241969597785;0.06623550225305952;0.004388384334929974;144.0;0.13247311754630825;0.0677300915376673;0.004589625155335367;126.0;0.1353283775346357;0.0548993069509509;0.0030113399879374367;135.0;0.11948598737322606
0.19693297228543355;0.038891188360130904;155.0;0.21898935903241815;12.0;0.21371661188092683;0.0457993707295895;156.0;0.22565814938888323;0.22183342672146072;0.049345066589440476;164.0;0.22856818740579032;0.22173096576200532;0.049291495104253284;164.0;0.22665565769206503;0.220378130995983;0.0486968613924486;163.0;0.22509847376077227;0.21528769090227187;0.04646703250717681;159.0;0.2236402267111062;0.20456545034586746;0.041950553388672984;160.0;0.21973057786361536;0.1841510620909548;0.03400989783510102;158.0;0.21360124317822987;0.1835798233607415;0.03380388842587657;160.0;0.21947865719577508;0.1951579158320239;0.03820323207838056;154.0;0.22187922976154675;0.19959521659218593;0.03996601657229219;147.0;0.221787830385992;0.19983731292082116;0.040064076662729056;150.0;0.22019932119328273;0.20048947398668499;0.04032625164981714;149.0;0.22186471525283688;0.2037751117306903;0.04166007702219915;154.0;0.22425407174826226;0.1860344411880682;0.03472064855797687;156.0;0.21448718397490335;0.16699731885054483;0.027970846412799587;158.0;0.21137188046085476;0.10683841656509831;0.011449337910435191;142.0;0.14177854584661156;0.11200142936936018;0.01258096116460296;145.0;0.14458720211230436;0.11189200404528234;0.012556902901487605;142.0;0.14574913833329461;0.10872434274526074;0.011853962715315572;137.0;0.1448645929269634;0.10683354516415039;0.011445291603415007;136.0;0.14423447750261406;0.10285325778907808;0.010606806364361378;134.0;0.14289646819130555;0.0966689346173457;0.009368910897670887;135.0;0.14165479009476653;0.09302970829307246;0.008676447807001195;130.0;0.13717348987636357;0.08991362851778079;0.008102379773012043;141.0;0.13581120351055284;0.09624682169227218;0.009284250553044668;137.0;0.13809891922192613;0.09661768088010432;0.00935933399335984;151.0;0.14027374763436104;0.10338370336129635;0.010716269871764376;156.0;0.14644978194299788;0.11361285240439628;0.012945546970853664;155.0;0.1525052525582966;0.11239469948279363;0.012668404279651154;150.0;0.15108482229224832;0.09595768290517226;0.009234440383974252;125.0;0.1468743674262454;0.08205952386467902;0.006745717448199394;134.0;0.13445121423921447
0.1654164540124299;0.02744126146309543;146.0;0.21902977606444562;12.0;0.1779382196737155;0.03175202812760446;154.0;0.22458796533812714;0.17493132750284557;0.030689255031571633;164.0;0.22506921896846513;0.16754293063335016;0.028155734421813218;162.0;0.2223672897334331;0.1631837154679533;0.02670880564791164;159.0;0.22045026786686145;0.15603483003817434;0.0244216856595544;149.0;0.21626728096663617;0.14694137125983112;0.02165972169215602;151.0;0.2108128086094455;0.1452757865310501;0.021166204541111625;157.0;0.21162828060659053;0.12012508711171492;0.014455210478670114;162.0;0.20677010807295684;0.12523004586740957;0.01570680269999001;158.0;0.20757542870299914;0.12648479349209293;0.01604130717490556;155.0;0.20755299222905002;0.1284405848718016;0.016544226009641082;161.0;0.20870437261718341;0.13187858098209596;0.01744288452620205;161.0;0.21195371685309947;0.139794620676388;0.019600250584931693;160.0;0.21632509586584392;0.13404675994218013;0.01802290277121923;153.0;0.21278609650921174;0.11183670985044937;0.012535535139981659;160.0;0.202321340739541;0.11210301085408522;0.012608196272380696;140.0;0.16456864881269198;0.11887655396417572;0.01417705114765511;134.0;0.16955326003851423;0.12236219404197314;0.015021514964559486;130.0;0.17144735567993108;0.12439474631949198;0.015524290671781944;133.0;0.17157097132800472;0.12523031684370062;0.015733218663442527;134.0;0.17149327703380976;0.11985623806201226;0.014409317711182992;139.0;0.16885268149312238;0.11080749856693928;0.012316272898999442;140.0;0.16462650263520762;0.09780592938866207;0.009597168109449475;136.0;0.15671344880372173;0.09680776796822652;0.009392617992860376;156.0;0.1534643637079399;0.09869554827261558;0.009765016718835992;151.0;0.15387983818076012;0.09368860388487078;0.008804407455839382;154.0;0.15259406564793512;0.10115202231652738;0.010265173048105525;148.0;0.15512648529510145;0.11314524986418548;0.012843528197438284;143.0;0.16103116783686888;0.11164319200551791;0.012504864155947279;145.0;0.16177479137770356;0.0943717505244993;0.008935159765365396;141.0;0.15917541555857792;0.0890624343397451;0.007951701870947573;151.0;0.15329882461484637
0.14112062905570985;0.019965628251044722;135.0;0.19998967239719959;12.0;0.14895499754430294;0.022246788133462245;145.0;0.2036098089362127;0.14872807797422968;0.022181196864472535;149.0;0.20251717476041625;0.14681919148871653;0.021615195958726432;149.0;0.20102278282430736;0.14698341496663794;0.02166894639564413;150.0;0.20061436779310465;0.14637476592342089;0.02148418324363615;146.0;0.1985317675882982;0.14272212298676215;0.02042655745681916;149.0;0.1957276539368597;0.12437642197414353;0.015510394010522332;144.0;0.19176849095878204;0.09814335528318155;0.009659599920899395;156.0;0.1843005141646697;0.10068223414624487;0.010163764264314173;159.0;0.18600003572355553;0.10371685771902635;0.01078612240555109;162.0;0.18748161985670753;0.11021104741361988;0.012180924550544467;161.0;0.19111411128923916;0.11371228603448337;0.012970640772253617;160.0;0.19389994883068434;0.11681201593924512;0.01368848796378952;157.0;0.19763221345796378;0.11075473082076304;0.012303619503764934;146.0;0.19727723303243713;0.09766567237093626;0.009564882133902265;158.0;0.1811054910437817;0.06837463941374368;0.004688861063525553;151.0;0.14825235356199462;0.07418943690296818;0.0055215528079134765;146.0;0.153120511146735;0.08009146880331995;0.006433103910142912;146.0;0.1549778539853862;0.08858443723597989;0.007870706195977984;151.0;0.1557179885601362;0.09402981690418474;0.008868703050162862;155.0;0.15617619195553697;0.09145585391150597;0.008386363671713165;156.0;0.15341439546168165;0.0855365155019047;0.007336614592418382;156.0;0.14904753822287672;0.06019065343082508;0.0036318879403349335;149.0;0.14010612463856112;0.06839371260613679;0.004673212550512622;157.0;0.13902100617495264;0.0664718037190196;0.004416076579543366;160.0;0.1404101303408029;0.06092641298286194;0.0037137002570559814;154.0;0.13895648832234023;0.06611722898995173;0.004374688288758357;150.0;0.14015537211124532;0.0723972174950959;0.005247658440603123;146.0;0.14308211317902422;0.06666090903388776;0.004449526930277027;151.0;0.14165706280050458;0.06071050194115094;0.0036956533923162907;149.0;0.14197416975171015;0.06620127123561828;0.00437837553849409;158.0;0.1378405078437734
0.11705610352646562;0.013722197731184287;145.0;0.18717054400720548;12.0;0.12368147040097381;0.015319931716000807;140.0;0.19221055642072923;0.12759035941797084;0.016295799188986177;139.0;0.19402859983397872;0.1328935065316716;0.017690597013064614;141.0;0.19472735684966996;0.1371590147433247;0.01885257822064142;146.0;0.19573589050018367;0.1405996345346957;0.019815735862151438;150.0;0.19522859149765728;0.13961157217219808;0.019543202375196182;151.0;0.19395132651336494;0.10562621627031303;0.011170138528319922;145.0;0.1801332786588138;0.10499781320286695;0.011056467138697436;157.0;0.18060503808244985;0.10820612693564652;0.011742178688971977;158.0;0.18239396192959434;0.11051806086450393;0.01225088663143967;156.0;0.18336977036770352;0.11470346323121107;0.013197338724857831;149.0;0.18561025230658298;0.11593754445126689;0.013484280042791076;148.0;0.18630492125543888;0.11638926973225582;0.013590102469842318;153.0;0.18771792746101662;0.10584496186951353;0.011234690578496513;150.0;0.18433993116757358;0.10307403496143701;0.010652410559742913;156.0;0.17722274232096533;0.055625424404543364;0.003100180690551201;161.0;0.13799962220246212;0.059221349903245846;0.003516438720304216;150.0;0.14133863255266466;0.060209422763383445;0.00363524696636951;153.0;0.14188842429474965;0.06208917206601639;0.0038664285886587956;155.0;0.14174473200756724;0.06409415130919313;0.004120784250034125;162.0;0.14082204157524247;0.06288499469978841;0.003966750015945298;162.0;0.1385026469608008;0.060239681384501274;0.003640351108873069;163.0;0.13522603537543823;0.04945472945528538;0.002450857344970888;160.0;0.13068041889902574;0.055076357848776944;0.0030418151697973674;151.0;0.12913090285466153;0.05148369784013278;0.002658178403406356;161.0;0.1294083621142199;0.048809169794303026;0.002390046512092956;158.0;0.12926391476916593;0.05584798740124592;0.0031271972802915924;160.0;0.1316860500433692;0.061365115520692085;0.0037733986081001005;160.0;0.13335951651723785;0.055707730818610406;0.0031091945222497417;167.0;0.13030077749142088;0.05278169896415358;0.0027921028246703987;163.0;0.1309272598429946;0.05595173994150022;0.003138864661482196;148.0;0.12864272860481069
0.13772699664038057;0.01903066305323847;160.0;0.19710187655321926;12.0;0.14740920327886026;0.02180010980311278;151.0;0.20342385308562605;0.14291229970121935;0.020489546771096826;148.0;0.20369385254928332;0.1368138143150102;0.01877849529180513;144.0;0.2002414241256105;0.1337358282090178;0.017942941793406206;147.0;0.198189725632907;0.12945170012511545;0.016812012008212144;153.0;0.19479910425646818;0.12533398008761326;0.01576015338081263;155.0;0.19192341142763203;0.1170658249005198;0.013749232423299954;157.0;0.18661380064505442;0.10593718991130344;0.011257713071298863;156.0;0.18319717109193592;0.10970103212944253;0.012071339638129933;158.0;0.18479289223986972;0.11001693502246207;0.012138756298735863;152.0;0.18447095351445705;0.11105442737387343;0.01236644728976485;149.0;0.18527286026048287;0.11218438585559455;0.012614903771672192;150.0;0.18565082484556758;0.11320642510715641;0.012843512225326743;156.0;0.18617941364921278;0.10523837044931494;0.011107215432538795;150.0;0.18177846787029658;0.10095103471676321;0.01022423721140189;151.0;0.17919508409572094;0.05273897109278002;0.002790369189850055;160.0;0.13600893528531305;0.0537111486598044;0.002893989459112372;155.0;0.13820595154156756;0.054688715071132384;0.0030002978574346574;159.0;0.1386122899306966;0.055647069854742263;0.0031060806554860897;151.0;0.1387514929769546;0.05755617669430945;0.0033228318176020954;155.0;0.1394849770367724;0.05661414961168387;0.003215027169189461;159.0;0.13864326360047102;0.05460499268497771;0.0029912262754381727;161.0;0.13770572318215943;0.0522589040662071;0.0027399433959920737;164.0;0.13219072729245548;0.05011942272913431;0.002516498138277742;151.0;0.13133624494742907;0.04757420791306371;0.0022683611794655683;155.0;0.1313681232586962;0.04529195527531833;0.0020570540654826254;146.0;0.12909613318729454;0.046822473358806765;0.0021986939173513215;150.0;0.12868538059768564;0.05033343569199882;0.0025412201540310018;148.0;0.1294302531028292;0.053410794360729846;0.002861606453298575;157.0;0.13139541438926688;0.053903943488507675;0.0029145741044292323;156.0;0.13355771418372653;0.05199631167814769;0.002708398110830211;149.0;0.1312896556574618
0.15102652682516302;0.022879517241581146;142.0;0.20277427148824415;12.0;0.1635661162177017;0.02683689016281642;137.0;0.20872324173479503;0.16112534144210205;0.026034479622654025;141.0;0.20976148921757534;0.15331725627645915;0.023576183967689898;140.0;0.2059687372424816;0.1485177589984602;0.02212179763703758;145.0;0.20251260803430962;0.1422810708242382;0.020307512822458528;146.0;0.19896820973242857;0.13670964870283817;0.018747975009865695;146.0;0.19608411656158542;0.12935393353909186;0.016785438865315073;144.0;0.1922746032560384;0.11178101723996361;0.01253436238786959;145.0;0.1845573535723685;0.11603208515312553;0.013506380205577326;149.0;0.18565654637752266;0.11662681832498167;0.01364369200090919;148.0;0.18494035312545687;0.1170339727974279;0.01374063398778283;151.0;0.18432734217870309;0.11901611975302505;0.01420956488792655;150.0;0.18528661923443063;0.12162282062060337;0.01483971467187867;150.0;0.18592055382199627;0.1139718242484684;0.01303123402584967;146.0;0.18556163774374193;0.10647440241875197;0.01137231109883157;142.0;0.18098610100923207;0.05045696449077603;0.002554222757375845;151.0;0.13122665252805177;0.05148032492788074;0.0026587802379119934;160.0;0.13343992440478358;0.051422982328386733;0.002652864449507301;164.0;0.13311304783126435;0.04970879896193526;0.0024790397437286496;155.0;0.13047333233095018;0.04929204541934286;0.002437443593156022;157.0;0.13001940752261454;0.048002251811847016;0.0023111875425314977;158.0;0.1288932878478713;0.04631021031835544;0.002151135800899231;158.0;0.1285763935740283;0.04760474360335793;0.002273564906115194;156.0;0.12610254001336427;0.04470482747381766;0.0020045582204994347;149.0;0.126584494944409;0.043442037382928754;0.0018933593638773743;153.0;0.12677968801111225;0.041588203300566645;0.0017350804421918645;141.0;0.12372000224913082;0.04347751156904144;0.0018961728325793137;143.0;0.12508106293314403;0.04549540619487949;0.0020759987209161695;139.0;0.12621943914957937;0.04695059892114596;0.0022112086544905886;147.0;0.1298196564967664;0.050445680357147867;0.002552704786674394;145.0;0.13263433601509741;0.043947658478943184;0.001937546702939037;149.0;0.12390796772401416
0.12663662362265005;0.0160865911958943;139.0;0.1976721026286298;12.0;0.13484747860687943;0.018241564809603154;134.0;0.20134636024256836;0.13262675788848435;0.017644961567928386;140.0;0.20075042896835027;0.1268331033984353;0.016138558464041133;138.0;0.19605259410438453;0.12384787550515677;0.015385537316000307;144.0;0.19253774908862206;0.12186869423613536;0.014899444016337934;142.0;0.18921877283123334;0.11932024282027812;0.014282339519592102;144.0;0.18686017428312665;0.11157299223819694;0.01248869247189815;141.0;0.187793106822976;0.09661386739683261;0.009363671866678748;139.0;0.1767131430082941;0.10022383422402532;0.010075709669556716;139.0;0.17717164815572647;0.10058091328582323;0.010148367932749034;141.0;0.1769559144701838;0.09973818586863278;0.009978376522468057;149.0;0.17668467866182117;0.1010157548708748;0.010235014465011806;150.0;0.17778241964608435;0.10180308648163708;0.010394351188799405;145.0;0.17697402766263595;0.09641944801230236;0.009325739875608254;149.0;0.17962145848191707;0.09212229868628492;0.00851425777755436;138.0;0.17370056726321184;0.050129938430531554;0.0025210244116774076;144.0;0.13302485081376594;0.05203161872567562;0.0027156784556094577;149.0;0.13431943029062754;0.05106000513358709;0.00261499506935385;161.0;0.13252659518861404;0.04909400189680919;0.002417686060889614;159.0;0.1289473634297308;0.047592740263310104;0.002272424362345825;158.0;0.1260488317339611;0.04581314957445985;0.0021056963591802257;150.0;0.12354475215424353;0.043233441832575055;0.0018752358774322994;146.0;0.1212815371384107;0.041879328134169856;0.0017595931357832057;149.0;0.12498815660320962;0.043090735211956666;0.001862770846303834;148.0;0.12299765425134906;0.043359006889674374;0.001886012972248566;154.0;0.12456364144145246;0.041004829981593674;0.0016868352496749272;144.0;0.12305380437577104;0.041493547299559494;0.00172734256150738;144.0;0.12491256183468477;0.04179778792933004;0.0017523590930677805;137.0;0.12653816480812635;0.04185144489602799;0.0017571490336001814;141.0;0.12794790511077211;0.04519297941879887;0.0020490010470100573;148.0;0.13076468459219603;0.04013260361189386;0.0016158149835535235;146.0;0.11892573526783527
0.09809439837164195;0.009653451519477331;150.0;0.1813405883633135;12.0;0.10385419261503773;0.010819362216417275;150.0;0.18551356922965287;0.09900075775937196;0.009830136790659708;145.0;0.18468914614516266;0.0932545230310897;0.008722103713932455;142.0;0.1787939481922361;0.09112743350039582;0.008329852670647345;144.0;0.17500529808879225;0.09178774769203123;0.008450901241255047;144.0;0.17141901731268014;0.09217166477442137;0.008522517223683003;148.0;0.16964785387746034;0.08561186187962545;0.007353351608473725;159.0;0.1719291472195073;0.081866769173477;0.0067240565904520926;154.0;0.1649310624278493;0.08533511941310898;0.007305875875728841;148.0;0.16491628460758528;0.08515367103786117;0.007274651308512372;147.0;0.1643469334969497;0.08392108387603608;0.007065377297884064;155.0;0.16414105568951337;0.08363923439936753;0.00701734322013721;158.0;0.165480888078678;0.08545180086439852;0.007324637248708456;152.0;0.1667215932982345;0.08177973142261277;0.006709629732429732;158.0;0.1683360026541416;0.07769117005597193;0.006055609146512814;151.0;0.1625478571710974;0.04893483859443141;0.002401697514086805;144.0;0.12950951369439648;0.05163247344527958;0.0026738362417530427;141.0;0.13048054108436422;0.04973569922699435;0.002480823421153478;145.0;0.1295394072945304;0.04671301920097337;0.0021881991566053386;143.0;0.127359372774161;0.044733479831013806;0.002006737449769505;141.0;0.12451538336355862;0.04341066356326206;0.0018901271671623787;137.0;0.12275405207120405;0.041238074383331845;0.0017058450003441237;130.0;0.11972152157248334;0.04195529559646344;0.0017656339994244251;150.0;0.12311109044382938;0.03931052811599928;0.0015502313913742544;144.0;0.11553574294541712;0.04063837784648027;0.0016568072877842113;148.0;0.11714808248250178;0.03938356954734522;0.0015560118220718842;144.0;0.11728328598270642;0.04050659946125183;0.0016456690768722256;143.0;0.1201735914705238;0.04244343910471643;0.0018069705148528454;142.0;0.1226886533748763;0.03978947395594324;0.0015883112142092263;140.0;0.1209138808670107;0.03996071162058348;0.0016020231565259241;152.0;0.12500763972123363;0.03801022445172469;0.0014495027833590006;135.0;0.11304434300646161
0.08397785789486142;0.007070895798769861;159.0;0.16675730735045108;12.0;0.09087102293229095;0.008278044480813129;163.0;0.1732942184827629;0.08867507172856683;0.007882912324257934;149.0;0.17563740840262781;0.08521445576559804;0.0072817379469122135;147.0;0.17326852696985576;0.08496655071021661;0.0072411745682213575;153.0;0.17160228233125482;0.08620112554678142;0.007454311062783095;151.0;0.1696838402899993;0.08726057065938891;0.0076391142901692044;151.0;0.16899411247234278;0.07098718765835718;0.00505190636195303;167.0;0.15883446118487296;0.08168018898303182;0.0066934174669181345;161.0;0.16158722319802504;0.08603682667968389;0.007426334060438802;160.0;0.16267272137601538;0.0868799453832623;0.007572680429522155;162.0;0.16287985401309618;0.0882505729316935;0.007813660879806218;166.0;0.16384672305006853;0.08902535693095329;0.007951464192474828;166.0;0.16680849310368262;0.09052517996151126;0.008221650286081494;159.0;0.16991536131320778;0.08262812308941002;0.006849486013023317;163.0;0.1685301576064014;0.0772580952193523;0.0059876293197068334;157.0;0.16030092710726934;0.056170438555019055;0.0031627510084206003;137.0;0.12954780339993816;0.06077082807566287;0.003701219552710133;133.0;0.1317894101194906;0.059838516434027544;0.0035862609791783647;116.0;0.1311709633988434;0.055026924184079264;0.00303367279685175;119.0;0.1282055524417467;0.05096546929576868;0.002602069054849289;124.0;0.1238828557333086;0.04831489377699953;0.0023380320384050954;127.0;0.12071944301680088;0.045308637061443405;0.0020568435083717983;124.0;0.11672784742072975;0.0456680922476604;0.0020907264772000705;139.0;0.12099202977356502;0.03977964234480745;0.0015872945559631294;134.0;0.1109866027510022;0.0389302575137931;0.0015204783347844376;136.0;0.11073637280383167;0.037433444727000546;0.0014056271991463398;139.0;0.11096946036416688;0.03877675861378462;0.0015085551375556248;140.0;0.11377043244311867;0.04093810997277511;0.0016813427434707083;140.0;0.1165749242970803;0.03947236472371658;0.0015627074537636577;144.0;0.1164078125015547;0.041399327191455344;0.0017190263552051156;142.0;0.12058577930341223;0.03978164510635061;0.0015874112735694728;129.0;0.10864816128439597
0.0885861219114897;0.007869435464975162;152.0;0.16929243728929308;12.0;0.09619704001487349;0.009280440197853937;159.0;0.17465742306149476;0.09978719008979371;0.009986522653785605;156.0;0.1748497559676248;0.10075927107868621;0.010183361320871286;148.0;0.17205837380810549;0.1032600851778446;0.010695339743540538;155.0;0.17320574147167356;0.1063645556601198;0.011347805136847078;149.0;0.17402290525887407;0.10854690587693108;0.011817978240879424;149.0;0.17466673972402771;0.0812460063749322;0.006619638994745681;155.0;0.16058396772770347;0.09115580121576164;0.008335009538621258;152.0;0.16448524748360369;0.09724532572714405;0.009481503242144388;154.0;0.16768071911396076;0.1004934870611054;0.01012262067861846;161.0;0.1698458889464527;0.1060772753910885;0.011277050230665765;164.0;0.17324874006721203;0.1101989086013476;0.0121658978898413;165.0;0.17519073835381835;0.11046129658907841;0.01222127513422188;160.0;0.17665755897026755;0.09965801050166462;0.009953182305388903;154.0;0.17460040113669742;0.08865575816124253;0.007881327088406078;151.0;0.16327325440578713;0.09558612176239625;0.009152734058579203;141.0;0.13258726881441368;0.1012233301782325;0.010262908457783102;147.0;0.13500265105304884;0.09810931118260807;0.009638232056616429;131.0;0.1346399888472699;0.08988870342402615;0.00808611530205077;132.0;0.13007844418184672;0.08376585136084129;0.007018227283409296;139.0;0.12615663624622558;0.07815153207079603;0.006105931633043016;144.0;0.12204259804892005;0.07241658926852904;0.005244168701480178;141.0;0.11871430491170622;0.0781383884549718;0.0061096079678559945;141.0;0.12499410017275772;0.05547533223746717;0.003083741744908649;143.0;0.11030804435130129;0.05544048754505598;0.0030812124915912714;154.0;0.11043735375824994;0.05549674316088091;0.003087720373146432;150.0;0.11243137199619646;0.05992716475375606;0.0036023466640679454;148.0;0.11639724603073193;0.06398564435875333;0.004106733572147775;141.0;0.11952841615761091;0.06256251865604603;0.0039235943960852886;148.0;0.1194776912951715;0.06216260327771311;0.003866678011967896;141.0;0.12123068996447826;0.055084420038522076;0.0030396055288364155;144.0;0.10848258432731363
0.1480665514074042;0.021992184241522952;153.0;0.1888504384638495;12.0;0.1608865607483407;0.025959238989031016;157.0;0.19474059991540574;0.16244039082375608;0.026468504089679684;163.0;0.19252671982465813;0.1603853493191575;0.025802494940600385;154.0;0.18808716864573682;0.16040602427535663;0.02580905459195289;154.0;0.18793958246912928;0.1602421795897226;0.025758461565519926;151.0;0.1868972174289782;0.15751136949657585;0.024890066012747156;148.0;0.18571327448427935;0.13262569092163445;0.01764558983459854;156.0;0.17935691271758847;0.10951320624581697;0.012030989121977602;155.0;0.16831829250367783;0.11590720926050206;0.0134774121040542;153.0;0.17142629151569716;0.12100349632843964;0.01468942343245819;157.0;0.17376562266180978;0.1293409213020015;0.016783802431090133;159.0;0.1772286043630016;0.1339947164482985;0.018013453789444085;162.0;0.17849354255197672;0.13639365473246506;0.01866429469427168;163.0;0.18100922502416691;0.12639157331902307;0.016027208847257064;151.0;0.18089864308102938;0.10855674402856864;0.011822288438976928;154.0;0.1672119141473934;0.1410812178610744;0.01996594943851776;141.0;0.15671043531060508;0.1481723887794192;0.02202293465964308;145.0;0.1605140218510936;0.1427480132240523;0.020440846970180972;143.0;0.16086130667080192;0.13173771329189712;0.017410868089301975;141.0;0.15715570460065684;0.12381092003729278;0.015378672658317103;147.0;0.15433577343604474;0.11522584889026;0.013320138592437216;153.0;0.1496131665380628;0.10476062503852228;0.011009932639901519;150.0;0.1447093226387479;0.11284748618399519;0.012773897950464953;143.0;0.14931576966884952;0.07587159867852974;0.005775277859661126;154.0;0.13341551646532882;0.07916626761563421;0.00628769982305138;162.0;0.1345825361187106;0.08579713202040441;0.0073850560417507705;158.0;0.13589874413450098;0.1006132320777886;0.01015584628484309;162.0;0.14339342296834573;0.11308910540487112;0.012828569612159115;167.0;0.15107862180451326;0.10707851997766141;0.011501231003786017;167.0;0.15310133724703726;0.09758414393925195;0.009553588204475506;153.0;0.15118106022849442;0.07361862626855503;0.005437372090722403;144.0;0.13119306576327455
0.17345590014635265;0.030185215878003834;147.0;0.20635858396665996;12.0;0.1898517466562799;0.03616080482580378;147.0;0.21213672766686906;0.19168337548973027;0.0368621104235829;151.0;0.210629991007601;0.1878344606835437;0.035396960288827606;148.0;0.20640617178914314;0.18668987471043014;0.03496700774018592;148.0;0.20412710756792093;0.1837497310483348;0.03387401262844138;153.0;0.20015439528364742;0.17651143800164676;0.03125789852256625;154.0;0.19642138064414863;0.15131668733170917;0.02297156777214657;152.0;0.1962833766903605;0.11656753926681895;0.013632201983930767;163.0;0.17995387996540602;0.11975450546212851;0.014385638584896134;161.0;0.1808282529147919;0.12275003144664427;0.015113796084352309;162.0;0.18159094970551112;0.12735390076416667;0.016266268719347138;163.0;0.18278894207751537;0.1292887321618442;0.016765294439680015;162.0;0.18521757962807037;0.1318657662134504;0.017437457118406916;164.0;0.18752669800910435;0.12525065994367773;0.015731178050391283;154.0;0.18750917859574284;0.11611381768689046;0.013524904071305244;158.0;0.17980592898494652;0.12845644624629524;0.01653741821928575;151.0;0.1595585001980275;0.13517258049893346;0.01830923784825651;153.0;0.16488797308219297;0.1288931322130707;0.01664619324212422;148.0;0.16309506537222457;0.11848939685879642;0.014063543242541277;143.0;0.1588595451838303;0.11236923554743047;0.012652023607732335;146.0;0.15695540574493724;0.10542365493782671;0.011132504601017536;153.0;0.1537664722245056;0.09616518790513574;0.009263016063575637;155.0;0.14915903274557812;0.09933321716157498;0.009883390907951928;157.0;0.1491251960944136;0.06986866224527587;0.004894142333034626;159.0;0.1410487553478771;0.07544171070878979;0.005709275354623581;154.0;0.14393776437574388;0.08364866761809976;0.007019882553098487;159.0;0.14511262719934256;0.09965727280142078;0.009964133092620222;161.0;0.1521601767187556;0.11251657160026009;0.012701476093645261;168.0;0.16008779441700294;0.10529757241251247;0.011121925392418866;164.0;0.1616115251012827;0.09400287603118362;0.008855138581031385;161.0;0.15757782488730535;0.06626365496695323;0.004400201571184809;146.0;0.13841915402478056
0.13276011763390383;0.017679284349759964;135.0;0.20427022439179043;12.0;0.1441398710603977;0.020837986123915103;140.0;0.2077222981167331;0.14664347121138607;0.021567479910254414;144.0;0.20688186464650699;0.14518776802857564;0.021141083058165106;153.0;0.20309364076550612;0.146135068435559;0.02141816573208613;151.0;0.20083669605666443;0.14477054541232973;0.021020053237813904;156.0;0.19790171634722567;0.13943742619273963;0.019503915060962704;160.0;0.19512484744434183;0.11605734627231849;0.013510432662127127;144.0;0.19503205014844696;0.10286948353723317;0.010615673554277758;154.0;0.1846078759197188;0.10380237742713809;0.010809422824084721;151.0;0.18456592945654407;0.1035580059416773;0.010759221794106676;153.0;0.18434216783668492;0.10265518281786976;0.010572497766218719;156.0;0.18423131739220583;0.10190594516070606;0.01041821166071593;154.0;0.18653983826038667;0.10283246542885496;0.010608652991087212;153.0;0.18958032287177512;0.09938480382692497;0.009909613233771333;150.0;0.18909763378458144;0.10139474733105039;0.010311902619133293;152.0;0.18483819266232965;0.08237273558523708;0.006804563985973916;166.0;0.14317002214343233;0.08907149383210328;0.007958988454187424;172.0;0.14876945031354577;0.08358848928369929;0.007009569517365015;167.0;0.14563879156017295;0.07611738196433392;0.0058128617234073235;164.0;0.13968858512200752;0.07314566342168738;0.005367829918681836;162.0;0.1376998450423589;0.06973410677726709;0.004878813884344022;164.0;0.13657038271960756;0.06516366734971768;0.0042601678502807395;163.0;0.13309847877893302;0.05924022714457653;0.0035186318302006304;168.0;0.1297646523245676;0.0509593001095825;0.0026054198073854795;167.0;0.12873165716308402;0.055867327998112365;0.0031309678496589197;165.0;0.13060833336200478;0.06225010286644248;0.003885318601878204;161.0;0.133731882765455;0.07208425932486254;0.005211117321826874;156.0;0.13899438432846695;0.078403594545056;0.0061632938718817545;156.0;0.14286231329432308;0.07142544769134207;0.005116474494014735;152.0;0.13984345761510228;0.06359934063213929;0.004057761564057928;157.0;0.13896757252573408;0.04876118284937072;0.0023853172216654456;164.0;0.12713100704755853
0.09460247738498928;0.008978855693146173;138.0;0.18755161651356655;12.0;0.10119694591496768;0.01027428331558324;148.0;0.19314297804742753;0.10114406500898507;0.010263544685147051;140.0;0.19297035725160092;0.09877529089610856;0.00978850170064278;146.0;0.18934486725814992;0.09843082899616648;0.009720001703408289;142.0;0.1866148602801531;0.0975819583653449;0.009552983253982817;143.0;0.1836740946345061;0.09512191249815127;0.009077149068108813;146.0;0.1810658083618733;0.08308631606751389;0.006925892045648586;144.0;0.17870285303098357;0.08140197643816612;0.006647014556310216;146.0;0.1744082828934729;0.08188407274396192;0.006725630089385809;146.0;0.17424022819461157;0.0813853020732042;0.006643429568640645;146.0;0.17373767238407153;0.08028348021284198;0.006464159211098791;149.0;0.17409715992205238;0.0793164150264282;0.006308629463338166;152.0;0.17500745131925902;0.08042709727647279;0.006486998781932669;150.0;0.17761518569927723;0.07790642717741092;0.006084992699664987;148.0;0.17860129812780562;0.07942436890130607;0.0063284692686875485;148.0;0.17319066278427986;0.0769109491874642;0.00593438332408796;153.0;0.14834439126412255;0.08502897948902076;0.007253552036399032;157.0;0.15340492409896606;0.08397439008974343;0.007074766867659841;159.0;0.15235035153077242;0.07862361649469163;0.006201483374789051;161.0;0.14576425545684316;0.07422435659486001;0.005524923394331325;159.0;0.14091779825820216;0.06898261455304171;0.004771794929739361;156.0;0.1375165907190814;0.06270754903004772;0.00394309540305331;152.0;0.13359077999006558;0.0545491776379395;0.0029852910746459697;155.0;0.13241358158671207;0.051429856019295436;0.0026520612810763443;163.0;0.12906576143459078;0.05437120818061276;0.002964784540189576;166.0;0.1296001537916336;0.06076103301018992;0.003701921436323005;157.0;0.13244760245050669;0.06890266361407668;0.004758715609237652;158.0;0.13725647737579266;0.07367911104760365;0.005440361895319561;152.0;0.14178060039189327;0.06554626516454362;0.004307404227238709;145.0;0.13916550727045326;0.05963103549489897;0.00356619938141001;154.0;0.1384050239568893;0.051476786573133815;0.0026572837086286908;163.0;0.12708815812134253
0.09371144392691086;0.008810631906686543;147.0;0.17640065727173976;12.0;0.10679870251094682;0.011443290392840198;153.0;0.18642958862890224;0.10820751929439769;0.011746798130380563;145.0;0.18905838068836175;0.1048409504351874;0.011027452011502833;141.0;0.18678876926319524;0.10326850638497286;0.010699186963504524;141.0;0.18444119805241185;0.10085389754163528;0.010204745278974277;140.0;0.18101047215504712;0.09707750542138714;0.009454788186201572;143.0;0.17738748666805443;0.08278386082797222;0.006875195189000236;146.0;0.16815256492839217;0.08132402669485404;0.006634437063359425;142.0;0.16702630413296032;0.08180233918121253;0.006713238680723856;143.0;0.16708971000506087;0.08127635738653657;0.006627031351383213;146.0;0.16678950197411133;0.07973813807551183;0.006378559760701882;148.0;0.1676302449256238;0.07895361809626315;0.006253932784808256;154.0;0.1681726107473417;0.07783699601292338;0.006077990577838245;151.0;0.1690815873853491;0.07537820518557556;0.005699680514918156;150.0;0.16978666098156492;0.07938282383247686;0.006321212523935033;148.0;0.16615715150758498;0.06728803457226301;0.0045420892443367245;153.0;0.1399340876277534;0.07472234617866241;0.005600072847050537;150.0;0.1439304306248593;0.07547370247856995;0.005713259079759904;151.0;0.14434654492984847;0.07141800390745136;0.00511635866505706;152.0;0.13893568332767953;0.06804928371296318;0.004645145856401083;150.0;0.1360899001074929;0.06341665428422663;0.004034297340349479;145.0;0.1322717332042757;0.0580845219031872;0.0033844767757604173;143.0;0.12958973047898548;0.05381421596953626;0.00290542097670485;150.0;0.12978313990779344;0.053924332861903235;0.002916049682005717;147.0;0.12646697896882605;0.05426858949067275;0.0029537661792251577;158.0;0.12597414570239648;0.05691681515428001;0.0032481980327506554;161.0;0.12699127108325647;0.0635517197222497;0.0040511500909221855;163.0;0.13203253405165227;0.06702043698895575;0.004505028753605197;154.0;0.13606254644698143;0.05894607026986248;0.0034851612885106963;147.0;0.13304675350540285;0.05480526054876314;0.003013441678983533;157.0;0.1306187165249661;0.05892452976091669;0.003482808446753392;147.0;0.12918244617518232
0.09123918527397436;0.008349972793707843;162.0;0.16939072362496105;12.0;0.10290061569705378;0.010621851374077371;164.0;0.178229653847671;0.10346719626602373;0.010739269880167258;169.0;0.1784259182009619;0.09961739503231701;0.009954290320879928;167.0;0.1751162612744121;0.09745110720365051;0.009523556803808066;166.0;0.1727858585008297;0.09464004162794058;0.00898314179382414;164.0;0.1696090253374319;0.09142889881667336;0.008384026497235646;162.0;0.16572510317924982;0.07982383098924928;0.006391271304723466;156.0;0.15908572237642368;0.0797697222522892;0.006384053543725813;146.0;0.15620268635936477;0.08085860847641646;0.006559724589498606;140.0;0.15824537463784097;0.08114348853609439;0.0066060241217370235;146.0;0.1590052469487816;0.08075872291237955;0.006543536165299863;143.0;0.15998625439553976;0.079814932866316;0.00639140967622426;146.0;0.16063597768048804;0.07743576958247803;0.006016006198113652;151.0;0.16181798207167694;0.07549340952042888;0.005717867514039527;159.0;0.16174210090666946;0.07686391475463286;0.0059274841050593816;154.0;0.1550797161257994;0.0577550111905088;0.0033465335010469106;154.0;0.13735913591153504;0.06702424342130858;0.004506909255836185;151.0;0.14238538564614128;0.0656921325058922;0.004329483640610279;152.0;0.14137621111785853;0.05660902079072388;0.003214808935257768;155.0;0.13333322379722634;0.05177950379131786;0.0026898946217130686;149.0;0.12914706095233405;0.04807497190595052;0.002318736485655691;147.0;0.12470139673406433;0.0445035320054176;0.0019870282811906346;150.0;0.12182253022344078;0.045812095190146444;0.0021055459645579234;157.0;0.1276091491568396;0.04690604604518246;0.0022072788289355405;147.0;0.12155248629192221;0.045704346098549085;0.0020956174437794005;157.0;0.1209921163887164;0.04545753395167612;0.0020731444782999204;148.0;0.1205502123250203;0.050027396449859665;0.0025101240504819614;157.0;0.12455726235769747;0.05177631623553575;0.0026881938924601264;153.0;0.12686833244060267;0.046302614033554956;0.0021503540581949954;156.0;0.12587735475060485;0.04619281371271298;0.0021406055575051586;161.0;0.1292526081905716;0.053510177896922195;0.0028725071049833964;143.0;0.12549593725409397
0.0890592113363098;0.007957460726917784;146.0;0.16127692832192034;12.0;0.09701280172343532;0.009442076526826947;147.0;0.16769961967627778;0.0991176990275587;0.00985611059051401;157.0;0.16628135187693016;0.09763798815133147;0.009564325463587887;159.0;0.16219827829916045;0.09634646353472691;0.009313037127641147;153.0;0.15865127500367976;0.0940450280448676;0.008873448264692078;153.0;0.1558435831709037;0.09029250555938968;0.008179315139446551;151.0;0.1528179758492425;0.0775481376775509;0.00603285651886577;147.0;0.14978751208978222;0.07733546490042192;0.006000187639314158;146.0;0.14575591344639727;0.07947132357196876;0.006336316140546673;142.0;0.14753671907551313;0.08020143933050189;0.006453348558141206;146.0;0.1483851968958618;0.08055764767922152;0.006510748351843085;143.0;0.14819915728450264;0.08040855087172612;0.006486688946017201;145.0;0.14845637614635027;0.08019709719806413;0.006452642148124991;148.0;0.1509242158015239;0.07686790310803816;0.0059279806630906885;153.0;0.15081564563234734;0.0729241178878773;0.005334750303504998;149.0;0.14393891646197957;0.05708029155857555;0.0032623228434130154;147.0;0.1388791951286954;0.06629501191480057;0.004401745893611687;154.0;0.14468583929363377;0.06490187392327486;0.004214117148915039;157.0;0.14337744883379785;0.05566911182465576;0.003095341779142274;159.0;0.13516685295860875;0.04996724771582947;0.0024913107440032467;155.0;0.12994724595191898;0.046443627696121724;0.0021536544196263086;153.0;0.1255212244670173;0.042274006343035096;0.001784694567460476;153.0;0.12173104608979123;0.040615286233032136;0.001651755535657291;159.0;0.1249087915151042;0.04149035866600551;0.0017270047455025207;146.0;0.11958504229865678;0.04083696750952215;0.0016728838878064566;151.0;0.12044870151608258;0.038843758358414936;0.00151353068912131;139.0;0.11880656699180872;0.03923628176937523;0.001543600381987456;148.0;0.11985501314380403;0.039718767231965255;0.001582031874449124;145.0;0.12075687321597625;0.03817142736908321;0.0014606697436649737;148.0;0.12036339708554707;0.04191068062092084;0.0017570078998610948;149.0;0.12476946676984894;0.04350784521280196;0.001897054775953807;141.0;0.11755207126084923
0.09746645052849248;0.009516202580393788;134.0;0.1645661016081431;12.0;0.10814739887256812;0.011720454351195593;135.0;0.17029705658754496;0.1072021240830085;0.011521562233231104;141.0;0.16866808832413638;0.10149939655748814;0.010326578995508866;150.0;0.16454388337902967;0.09794839635542903;0.009614677561957392;139.0;0.15993678775314082;0.09468185473442993;0.008983619848390583;142.0;0.15626296917190985;0.09098908447282723;0.008294053959032498;140.0;0.15385094944960312;0.08238907159346623;0.0068003969532355124;135.0;0.1532729297754624;0.0755651580478804;0.005715974847388774;141.0;0.1458455284195534;0.0771777038472211;0.005963961060698281;140.0;0.14573165862882315;0.07696615102385342;0.005932733311658469;141.0;0.14527686837568435;0.07605973051579124;0.005794182758681246;144.0;0.14387157028335415;0.07656569142870703;0.005870725077513614;148.0;0.14412773176314886;0.07746572561722553;0.006011584867892247;145.0;0.14667446781201612;0.07441462786802157;0.0055475078501558105;141.0;0.14637311381022397;0.07269947569049767;0.005288921327206054;139.0;0.1452990433190225;0.0569266945422242;0.0032501964566903994;147.0;0.13493494909445466;0.06512402935456409;0.004254070875043678;153.0;0.14144063814219596;0.0675862090052472;0.004581732107752792;153.0;0.1419077051183201;0.06606442569310826;0.0043777292969381905;149.0;0.13825584864016469;0.0643471622619254;0.004153639389624691;149.0;0.13624162325425412;0.06143176402809779;0.0037860027148994145;145.0;0.13364221821924593;0.05624793641316737;0.0031738482750747164;142.0;0.12994966631806482;0.04560272043764393;0.0020856922198963642;153.0;0.12468098652295483;0.045839459804932765;0.0021079871262169505;156.0;0.12474588972741021;0.046044103932006565;0.0021263078653392287;156.0;0.125660755543296;0.044051773113448434;0.0019467182487792128;153.0;0.12474013518328803;0.04398238451446853;0.0019407804059666002;153.0;0.1251168552402645;0.0451726568251863;0.0020472506724827843;151.0;0.1247347845140472;0.04253921551457813;0.0018152936265535878;153.0;0.12174309730288434;0.0446918180832309;0.002003215180529285;145.0;0.12241711093933623;0.0438838153708554;0.0019318168583522689;148.0;0.12131567021828346
0.0895457320586606;0.008042470625075323;149.0;0.16039231462780157;12.0;0.09962499227529577;0.009955546315015601;149.0;0.1673894344265871;0.09754601865916826;0.009544344255178977;148.0;0.16683896647971488;0.09125258552520313;0.00835307686069145;159.0;0.1620274050498695;0.0876677122576413;0.007709820872938846;157.0;0.15719004011460344;0.0846411374953645;0.007187253942206448;161.0;0.153752710894856;0.08208483118549988;0.0067591627970569595;158.0;0.15149799419121246;0.0729699069835991;0.005341050432349218;150.0;0.14909708790550397;0.06598838432390469;0.0043672895963184155;147.0;0.14671606856695582;0.06726717191621442;0.004538164070918878;144.0;0.14621676276741072;0.0670808143957977;0.004514095189739029;142.0;0.1453695556394031;0.0661043790462378;0.004383699820984539;145.0;0.1443903757561994;0.06643248868469506;0.004427568180250884;150.0;0.1444355636332395;0.06670959365047406;0.004464863823355605;150.0;0.14437290003999306;0.06528594701455752;0.00427607102602238;145.0;0.1448789754225469;0.06526288567605991;0.004271950546899806;147.0;0.1456562334426901;0.060587236793841134;0.00367899569943626;145.0;0.13305202406419211;0.06715013505210186;0.004518134764048511;145.0;0.13816904475330877;0.06818571557370877;0.004657410585387384;144.0;0.13674367776920102;0.06630179568103373;0.004401025350536059;138.0;0.1312239353532886;0.06564978612125406;0.004312358448893427;135.0;0.1299032191313635;0.0629552774426398;0.003966088775299288;136.0;0.12852179684809464;0.05838660720171991;0.0034121493363927706;137.0;0.12529449064766177;0.05070492463261911;0.002577428487645972;145.0;0.12638421561337593;0.04558635070286932;0.0020842880951795766;157.0;0.11907848936944536;0.04682586339080101;0.0021992877521378683;158.0;0.12043322276397594;0.04592031646465367;0.0021140421313352777;154.0;0.11967865646960085;0.046258561153737526;0.0021461048851012065;154.0;0.1201984890721805;0.047737471034150714;0.0022854904658572072;154.0;0.12094306511184232;0.049436470526760354;0.0024503672305800648;146.0;0.12389344280921015;0.05344522140970891;0.002862480510372047;142.0;0.12788352673215117;0.04344744726291333;0.0018922965851890987;157.0;0.11852360741467174
0.1057273047102394;0.011215130843261084;151.0;0.15288805407125608;12.0;0.1127844961907471;0.012762246726608667;146.0;0.15924532247523618;0.11126449309798106;0.01242060396289803;147.0;0.15955779209222254;0.10594585452119719;0.011261468314448528;155.0;0.154713842887315;0.10203329436618089;0.010444641044166439;161.0;0.1499797284777367;0.09747892724504365;0.00953220447300731;162.0;0.14642680487659177;0.09297607784689224;0.008671590908637677;161.0;0.14367345697658496;0.09306132010169721;0.008689031978339659;157.0;0.14441677188499558;0.07944848350097337;0.006319667494614399;162.0;0.143642227240129;0.08814855613090927;0.007783142323825827;160.0;0.14718182182795042;0.09201714132365538;0.008483196433981363;158.0;0.14765473645376467;0.09689210536984931;0.009407231634879854;156.0;0.14858253384112718;0.10264714907203383;0.010563254565991484;156.0;0.1497670495359379;0.10832826261043098;0.01177047692512779;153.0;0.15094542053735335;0.0975954271497726;0.00955510520477188;149.0;0.14700454834691987;0.07528207871344944;0.005675385877707072;165.0;0.14038269339561849;0.10725113799268111;0.011534936700710855;146.0;0.16296026259527474;0.1157117255848601;0.013429427915880532;146.0;0.1667886957763986;0.11512989555972825;0.013296004146204916;149.0;0.16640931180049712;0.10931295515008475;0.011987320298059736;148.0;0.16057009600239672;0.10892287277405874;0.011903039383438011;146.0;0.15976632404817934;0.10746834506816554;0.011587126281736556;147.0;0.15827335472064535;0.10316718241407603;0.010678344672786451;143.0;0.15515274510236918;0.0896757484346082;0.00806790885571026;147.0;0.15282853015215578;0.09365972168613332;0.008799912376230998;142.0;0.1452552900247578;0.09349125588151419;0.008768233619724959;146.0;0.14310313718489753;0.09419197662679589;0.00889924419589283;145.0;0.1412939484325512;0.0998556772921357;0.009999876336234607;153.0;0.14279330391292847;0.10080193363654909;0.010189738290490294;161.0;0.14490762806846974;0.08970102611569487;0.008068356049144278;155.0;0.14528290659691978;0.08729059855490386;0.007641250642151644;145.0;0.1505502478220473;0.09039025179746907;0.008196446303165102;153.0;0.14551872558620801
0.1457007116011564;0.02128207985817446;146.0;0.1766964411537413;12.0;0.15342263276031098;0.02359419775030502;139.0;0.18083365624334535;0.14854467136791072;0.022116277852101504;143.0;0.17783369510200034;0.139618278406847;0.019544004118767024;146.0;0.17187938628018293;0.13210136324842098;0.01749763376080888;148.0;0.16708867578337777;0.12384087796750921;0.0153768719642937;153.0;0.16289829660856167;0.11774149622922207;0.013900491463658725;156.0;0.15965588833790567;0.1290632510979539;0.0167014991490909;149.0;0.16766923570480435;0.12507672492014568;0.01568658812466629;153.0;0.16413968468986198;0.13763791095548178;0.0190012702951359;147.0;0.17014030572890973;0.1430984470547394;0.020543479598356836;148.0;0.17169404831050675;0.1471157126968563;0.021712653745055294;149.0;0.17221059294454533;0.15193690159125667;0.023160259726888666;147.0;0.1723265508292256;0.15196612846039365;0.02316920083444135;156.0;0.1717790575368739;0.13769429089932056;0.019021104673257325;156.0;0.16699529045606143;0.11409270175338017;0.013048406241174962;154.0;0.15941561638020474;0.1501347934942379;0.02258495092585528;154.0;0.19139785781286262;0.15639577360683543;0.02450729912692042;157.0;0.19409554277445135;0.15471790654582765;0.023981086316847224;160.0;0.1951155052211474;0.15060470926212488;0.022720713056485032;161.0;0.19271002377751334;0.14986478737703368;0.022487578030315144;162.0;0.1916739078409894;0.14708971824093064;0.02167137968425599;163.0;0.1889038219566186;0.1401309006624198;0.01967829798850973;156.0;0.18529568451204015;0.12205538447577458;0.014929972226601737;159.0;0.1801681464252238;0.1133008531132558;0.012864448393491795;150.0;0.17279574451472568;0.11328317555088743;0.012858873354916575;149.0;0.170832516842954;0.11729153808380242;0.013789612028046763;150.0;0.17207683201599847;0.12695903653698062;0.016154853903484298;158.0;0.17614558152361254;0.13024100985648018;0.01699746994000662;156.0;0.17936722669365934;0.11442678379589083;0.013113405829019832;161.0;0.17246690274792284;0.10698417459939168;0.011465315773531807;153.0;0.17094809075722697;0.11036451697615186;0.012204450361566324;155.0;0.17064723289306177
0.14109412517895398;0.019964852548727034;150.0;0.19301036038083133;12.0;0.15156284773368156;0.023036186410728923;150.0;0.19722965637920295;0.14756030994608652;0.021832698735394406;152.0;0.1956863559084841;0.14101916147498766;0.01994082988188913;148.0;0.19203634595360544;0.13501838995213006;0.018280174972225016;151.0;0.18802525514468404;0.12829644085503783;0.01650453855951343;155.0;0.18467389454347669;0.12293541442505125;0.015156751224099036;161.0;0.18277121673952473;0.12209918718119715;0.014951593000993494;153.0;0.1852131026453111;0.12618945909022317;0.015975125757205617;145.0;0.1823930263632628;0.13584782323554473;0.01851460900441884;141.0;0.18545766676879863;0.13974417942375889;0.019592247869250647;144.0;0.1868913399119647;0.13935563472804532;0.019482192929871352;149.0;0.1859305630515463;0.13936934605558535;0.019486889741636777;150.0;0.18553562332734239;0.13442038978416934;0.018125166151161973;161.0;0.1842842219306239;0.12379830126295957;0.01537452259746346;163.0;0.1831016326282703;0.11614667831110921;0.013532302917204447;141.0;0.17988552505245686;0.1380051274093972;0.019100268274218592;159.0;0.1840164627372452;0.14596686894752664;0.021369973030481926;161.0;0.18633109165540826;0.14563166772365577;0.021273345411811983;163.0;0.18668158752600456;0.14269219901013533;0.020424994283177247;163.0;0.1866087757307459;0.1410237336975075;0.01995208178072395;165.0;0.18666768973942385;0.13787647208412238;0.019071952343772947;166.0;0.18505745515904792;0.1306948768421112;0.01713689541593685;167.0;0.18109621766989953;0.11201016092278462;0.012587033507636337;160.0;0.17718539350633258;0.09114551378644324;0.00833397979221677;159.0;0.16820326379058886;0.09266847344160264;0.008614797134893673;157.0;0.16914329830690927;0.09830004173797738;0.009692811336577376;161.0;0.1720948055858341;0.11085148375675591;0.012327694655375756;156.0;0.1784111740662409;0.11972012149312121;0.014379131248938132;144.0;0.18317528797253924;0.10871349773740832;0.011854440122182388;150.0;0.17634467166371914;0.09724873543586175;0.009484056726830972;155.0;0.1703896691036307;0.08917994793704467;0.007978639888752732;157.0;0.1654794564692723
0.11505378698340352;0.013227684797160091;150.0;0.1842246201945658;12.0;0.1269049340084452;0.016097495270062597;147.0;0.1875437267119792;0.12767359126113906;0.016303261548232927;140.0;0.1867300659206998;0.12613126918874654;0.01592489946136958;140.0;0.1856241609053941;0.12390060045971714;0.015369407419157688;146.0;0.18432842407076966;0.11959041451404304;0.01432614614877758;152.0;0.18282297935023067;0.11431839216181212;0.013090463876509317;156.0;0.18224966931131464;0.09800832391773208;0.009594371889336897;152.0;0.1771767856128901;0.10095547331485899;0.010215194685648368;151.0;0.1766476627027076;0.10477731608531297;0.011006853121932994;152.0;0.17864982564203533;0.10497269518518745;0.011047658733701475;154.0;0.1790259851731355;0.10166033362557102;0.010362808319508088;157.0;0.17788530105309155;0.0992378234826465;0.009872071250915443;158.0;0.17648270147203646;0.09867245392028032;0.009762308675066377;157.0;0.17616216001557242;0.09159776767704875;0.008405391972395738;159.0;0.17488963527848597;0.0980110875749899;0.009628673335837874;141.0;0.17539932433428945;0.10934055618925469;0.011969869626747244;152.0;0.1697985302906184;0.12392205586266607;0.01537225109706516;151.0;0.1745269295561472;0.12307009783799096;0.015161966874243099;153.0;0.17394713145984267;0.11346421102360589;0.01289167611841021;154.0;0.17027624339231476;0.10782781848230022;0.011644687970664414;156.0;0.16857102757170617;0.10432215988266078;0.010902582276919886;157.0;0.16667353703002993;0.09882572415165126;0.009786451863863298;160.0;0.1631051290898436;0.08647677425307083;0.00748814939711884;149.0;0.16214097715932033;0.07652327498845848;0.005872270622544368;152.0;0.15762506996537323;0.07754450319208224;0.0060303261663772;152.0;0.15797095900430655;0.07931878444571909;0.006310645856054619;157.0;0.1585226144189512;0.08976876147527267;0.00808400926565682;153.0;0.1646207538763505;0.09971814438362692;0.009974569458344174;148.0;0.17025465982230545;0.09358518682257433;0.008780482290813393;154.0;0.1659016497235675;0.08511137247074532;0.007261400297317051;147.0;0.16265867238919762;0.07457623239842781;0.005575574493473404;154.0;0.1588875324122885
0.0968119822072411;0.009390372421262084;154.0;0.17070595569132196;12.0;0.10668374251517396;0.011402847534939805;142.0;0.1744252695225028;0.11060303334698811;0.012253863898503543;134.0;0.1738500806972195;0.11210804084717581;0.012590549787153392;142.0;0.1724208521434381;0.1126422527788205;0.012714259819830938;147.0;0.17242466069263307;0.10968169693896415;0.012055903863778625;153.0;0.1708517970489563;0.10450787094725576;0.01094786461621514;153.0;0.16880242602208356;0.08375522383314596;0.007026391647223145;152.0;0.16253050176164238;0.08577479540059572;0.007362485008224025;145.0;0.160727080721063;0.08977466752303331;0.008062901864459368;140.0;0.16521152318511895;0.08960288910353129;0.008030566426533707;140.0;0.16536137256390226;0.08717815412226781;0.007605202887327678;146.0;0.1646867677314666;0.08561858388643621;0.00733835332451018;151.0;0.1615803621363791;0.08617541631217059;0.007439494242235131;147.0;0.1599470218935637;0.08142799369350481;0.006644645234258627;151.0;0.15701946970471967;0.08449111115118767;0.007149698376534347;146.0;0.1584188302065788;0.088750310294836;0.007902362181059927;149.0;0.15830585280334397;0.09986900049007623;0.010005977696857534;146.0;0.16380313767920252;0.09926469708542546;0.009885479000063778;152.0;0.1643120084761465;0.09264740046488695;0.008611489426766721;159.0;0.15989658961001088;0.08831009227394636;0.007823059032169621;160.0;0.15639737308089555;0.08468548418610482;0.007194580048054391;162.0;0.15288702481667776;0.07976249015228142;0.006382589100531486;160.0;0.14932635148674148;0.06875544481257759;0.004742441783484932;150.0;0.14914548127865837;0.06372575587434351;0.0040726769848571645;150.0;0.1453869785225816;0.06407619241253677;0.004118295921442607;149.0;0.14572861197619014;0.06427567004730061;0.004144652834100609;154.0;0.1453329602172223;0.06857982290949328;0.0047184893502359515;157.0;0.14804394977345806;0.07383084703371784;0.005468827919977966;157.0;0.15134830560759885;0.07148138287794878;0.005126300637417794;157.0;0.15021407558522748;0.07070878453994493;0.005015928358820878;147.0;0.15298992369506695;0.06274828357757456;0.003949435079831219;156.0;0.1470297967306602
0.08529194093882793;0.007285580082298822;150.0;0.16219636904011692;12.0;0.09362111839291572;0.008780725144776133;148.0;0.16744023171284889;0.0945891697923078;0.008961735249298032;149.0;0.16840604910865453;0.09391698211595251;0.008838106303995907;157.0;0.16717325248074913;0.09358702204301314;0.008777025897472663;160.0;0.16593151507330678;0.0921048018499441;0.008504770725300714;155.0;0.1638023638630058;0.08886165401166034;0.00791536113405396;154.0;0.16126930722169416;0.07304395711643888;0.005343367491350585;149.0;0.15418938771499244;0.0638330293928049;0.0040874025297812505;148.0;0.14685137776511523;0.06872930488726667;0.004738968662529308;143.0;0.15118814466637712;0.06964493249331448;0.004865787256447544;144.0;0.1515205117063642;0.06882058980448706;0.0047508157256971025;149.0;0.15063645274733878;0.06740861481876934;0.0045572832228360826;154.0;0.14971811975306598;0.06638830559210597;0.004418706405940418;153.0;0.1482047372011538;0.06403935243489556;0.00410987825397875;152.0;0.14614447457976534;0.06325262800613816;0.004012981400175958;148.0;0.14427685921470768;0.07314782272337784;0.005363869576666381;153.0;0.15317178168831722;0.08117461972272104;0.006604827675997043;158.0;0.1573509118830363;0.08220179804106789;0.0067760813176921285;161.0;0.15685646007731993;0.07880069807034687;0.006228859711573687;167.0;0.1513916557788911;0.07666382631082887;0.0058962463295427455;167.0;0.14755539708112753;0.0736964954854539;0.005448863129463766;165.0;0.14375766949963;0.06963255332060023;0.004864368295482312;158.0;0.14010431380272578;0.05975134505896108;0.003580633233701701;161.0;0.14112762876046067;0.05172780589893809;0.0026845112440187823;162.0;0.13355689961327052;0.052226285813153674;0.00273632681808206;164.0;0.1337597704504753;0.05457032995264766;0.0029873282854193215;166.0;0.13476107966454234;0.061412305153726705;0.0037827850575957184;161.0;0.1366696347348328;0.06691205458762368;0.004490264751938509;160.0;0.13889040359716678;0.061073104350680966;0.0037411203920051962;157.0;0.1383518685645772;0.05728658527934596;0.00329247823963074;155.0;0.1428868440000676;0.047882328504309124;0.0023001812559684336;164.0;0.13057331632710684
0.0771423420103998;0.0059677340661524175;150.0;0.156957157583398;12.0;0.0823476762966363;0.006802153076335761;152.0;0.16350829682353143;0.08115235670204565;0.006606205762977859;148.0;0.16429601038746444;0.07753287015281987;0.00602929278635649;160.0;0.16070836087547838;0.07569288848008025;0.005746642990475197;161.0;0.15746458217171774;0.07561953045217507;0.00573472058705124;154.0;0.15491791802777652;0.07566625177563739;0.005741546577619014;157.0;0.15354250065669373;0.06560384404398667;0.004314920466735052;150.0;0.14950362509771012;0.07251642580448377;0.005272841319599304;155.0;0.14559577935538223;0.07614417364374039;0.005810137738434431;150.0;0.14764454973059157;0.07484378924018575;0.005612270308640889;146.0;0.14653492485846054;0.0707768705631918;0.005015860483766758;150.0;0.14482903095054891;0.06738876444195044;0.004549646104669764;150.0;0.14523568780584592;0.06447467460531092;0.004166935009848061;150.0;0.1435797745611762;0.05977933222224299;0.003583881034248576;146.0;0.14271042516840635;0.06737550234411849;0.00455066153186026;149.0;0.14124703129667954;0.08931848088331049;0.007986141455733228;136.0;0.15240990814044916;0.09931423134549572;0.009873592704395234;146.0;0.15558441286707836;0.09544060567581497;0.009114894935262447;146.0;0.1525967948487612;0.0850459476782519;0.007235273618568682;150.0;0.14570262233262546;0.07938040806792199;0.0063027112314075024;153.0;0.14016049660452432;0.075079443547219;0.005636214205115811;152.0;0.13556315498206853;0.06956286030076661;0.004836323313076875;145.0;0.13197485000685724;0.06446063395172834;0.004159371468440907;140.0;0.13740715153867172;0.05339465211394112;0.002849239695234535;151.0;0.12483842513986164;0.052951813139645816;0.0027981817363987205;149.0;0.12395316711097229;0.05486644819011601;0.0030056287555512624;148.0;0.12408020236062789;0.06347694106384795;0.004022620102562723;139.0;0.12821960743730706;0.07073736274906162;0.0049978760241150425;136.0;0.1336482408457156;0.06461539242321354;0.004168394552649066;131.0;0.13234410995103013;0.056889531494159755;0.0032343027717900187;133.0;0.13484771852310926;0.050522168574229864;0.002549663027229082;147.0;0.12266120612564858
0.07537305785940321;0.005699321030066726;149.0;0.16201016527911621;12.0;0.08066179496441515;0.006526843635070987;148.0;0.1679825779560232;0.08113111153812491;0.006603372863353874;141.0;0.1688954569240091;0.07838703514282684;0.00616444353812853;147.0;0.16483259852398913;0.0779749083286825;0.006099910765374539;151.0;0.1610171486296968;0.07933837264588174;0.006315228961040391;153.0;0.15759700805119267;0.08040802063201544;0.00648663765214552;153.0;0.15641024020765473;0.06763957201265546;0.004589924339009713;152.0;0.15575884258146186;0.08082494294150927;0.0065537524800043075;154.0;0.1526925252735787;0.08613339751784653;0.007443323410313664;152.0;0.15564697866914895;0.08584898292012981;0.007393987548544601;146.0;0.15647417265832786;0.08098619240422708;0.006580168642961566;148.0;0.15563882144218805;0.07700344883853164;0.005948956855066439;143.0;0.1551294617388074;0.07400350704585183;0.005494394904195532;142.0;0.15294591887921752;0.07010531545920422;0.004930887589713346;140.0;0.1534425930933196;0.07342186180796187;0.005408399965124368;154.0;0.14845609689390377;0.08739023042158324;0.007660617514924308;144.0;0.15225584484420074;0.09632033199459472;0.009305490652206625;150.0;0.15596311631701928;0.09211634520875392;0.008510876344438374;153.0;0.15384470297869937;0.08119407190931643;0.006613058784555051;156.0;0.1469366876878912;0.0754820361580755;0.0057158101316621265;167.0;0.1408045622328035;0.0713445474116789;0.005106256651150812;168.0;0.1365601276131548;0.06520687398719768;0.004265595876926515;169.0;0.1317992508390253;0.06202205865756274;0.003858433019957378;145.0;0.1388987200447714;0.04879058835261895;0.0023882225634987487;162.0;0.12213310826598821;0.049423401255458264;0.002450604251704681;148.0;0.1227639036450464;0.05037254815206348;0.002545640578859151;149.0;0.12262646528501557;0.05616691233157123;0.0031650309156847183;151.0;0.126060242252771;0.06182471240631412;0.003834756516802957;153.0;0.13092819776475387;0.05985513497842036;0.003594335965999947;145.0;0.13127445646027805;0.05591163858835394;0.003136346747361569;148.0;0.13466884257852554;0.04770646266958508;0.002282974881074825;155.0;0.12107931428704104
0.07214702939022993;0.0052176842656243855;150.0;0.15386727105602638;12.0;0.07717021171920423;0.005967079366760177;151.0;0.1575772663335889;0.07779850331843505;0.0060648833260984;150.0;0.15733045675572324;0.0765277833070939;0.005872581549878287;148.0;0.15490401365118742;0.07673351770503635;0.005905605023065498;149.0;0.1520330796154556;0.07773005624653515;0.0060610532952906915;155.0;0.14976282699569943;0.07765455127541943;0.006048910972306816;151.0;0.1492022497477466;0.06669236662471079;0.004460038241791655;150.0;0.14920531702678438;0.06876383799923927;0.004743923418939401;155.0;0.14069084198203535;0.07257988377788122;0.0052850396188291815;154.0;0.14343091481977013;0.0730391731834613;0.005352144933566751;157.0;0.1445419039999078;0.07100480865470746;0.0050581668661664045;150.0;0.14425529444478347;0.06997032288192827;0.004911868019786349;148.0;0.1440934607333269;0.06963806917386275;0.004864289665022097;148.0;0.14385071838585303;0.06872091906396968;0.004736403266259502;144.0;0.14609484380008186;0.06360971693639682;0.004059416703683692;154.0;0.1379816613244557;0.07170761445464932;0.005155120551790346;146.0;0.14527928914597893;0.07849928881281668;0.006175197789281193;154.0;0.14973485788571972;0.07413923990683016;0.005508132612785082;161.0;0.1477682379667714;0.06074625565596579;0.003696243463176952;165.0;0.13786013728945667;0.05424838987032779;0.0029484069649222473;171.0;0.13309018777731332;0.050785913701016136;0.002583657456292422;171.0;0.12977184672299996;0.04825097224099556;0.0023309961945214746;180.0;0.1259640993874579;0.05456099272340419;0.0029844431955071;154.0;0.13390459500827334;0.04110606526608963;0.001692023810761648;166.0;0.121603687247149;0.043084719303684536;0.0018593114865206332;151.0;0.12369103185809498;0.04506987031754741;0.002035248595060032;156.0;0.1258127744194533;0.04954615884513172;0.0024585593361860754;157.0;0.12927892360731333;0.05281589599244703;0.0027935485408358512;162.0;0.13252311621360321;0.051366981565268206;0.002643087832761537;160.0;0.13316234385498402;0.051698570958173345;0.0026794581186428902;158.0;0.13563387056780185;0.04019695546057818;0.001618420764572669;162.0;0.12032299984677526
0.052570344668679846;0.0027704934760257546;151.0;0.13286140984614242;12.0;0.05608083560060523;0.003151899084287503;149.0;0.13566194010482413;0.05749208551168462;0.003312819027956668;151.0;0.13537304185517332;0.05829161924708572;0.0034054677181056944;152.0;0.13398960890596262;0.058651046365106624;0.003448615694020629;153.0;0.13192796802020618;0.059146397132747865;0.003507522254668408;154.0;0.13026966718820884;0.05801314532063648;0.0033751752888802797;153.0;0.12965748233102217;0.04884375426903587;0.002391950510354422;145.0;0.1303891441995345;0.05079182515960786;0.002587861679588769;155.0;0.12693118114011498;0.05323571302910887;0.0028430183482185192;150.0;0.12850402713131898;0.0529810043487354;0.002815865943873441;158.0;0.12823666137012657;0.051843498819743095;0.0026964985298114103;144.0;0.1271525378186741;0.05244238964925649;0.0027586022757987213;149.0;0.12882273186223914;0.05432604539082306;0.0029601360654886487;150.0;0.1323439611895317;0.051438640619486053;0.0026532878439706233;148.0;0.13101361277118942;0.04743142560771955;0.00225692810044836;154.0;0.12409425575447632;0.07045237786975812;0.0049786912301119845;150.0;0.13912504107108423;0.08006236948070729;0.00642942793485667;152.0;0.14513133436557935;0.07838963842100155;0.0061644332922360075;155.0;0.1451244153826198;0.06810301762094789;0.004653160416981079;169.0;0.13951348602628236;0.06394020193145121;0.00410078702102955;175.0;0.13816539730348623;0.0604729746214163;0.0036680099907528034;175.0;0.13622097756483265;0.05803112588657886;0.0033767062571358726;179.0;0.13408675788622015;0.05559324557507022;0.003100713059060227;155.0;0.1310020810971757;0.04311222602246425;0.0018644299665109304;161.0;0.12596800802358937;0.045484225550914234;0.0020754606796660924;155.0;0.12787942524173;0.04907850385202133;0.0024167199250986955;161.0;0.1303445103177847;0.05494714145229887;0.0030287620601773175;157.0;0.13316979918027858;0.05925268569117036;0.0035211108463769547;160.0;0.13625016750659583;0.05405805758086193;0.0029316825696245486;165.0;0.132975927710832;0.0512139546588863;0.0026314644316592505;164.0;0.13293729333879054;0.04345449656513674;0.0018940991512933956;158.0;0.12635705211983764
0.08033246823081164;0.006460210244853027;149.0;0.1529792531659931;12.0;0.08964772215019114;0.00804431973415018;145.0;0.15731676160623556;0.09366535050175948;0.00878401156926945;145.0;0.15660187250102373;0.09143350380196974;0.00837000268891126;147.0;0.15268927475932914;0.0883716280525684;0.007817054937979385;146.0;0.14949531456668005;0.0849401050256559;0.007218981162751994;144.0;0.14581148658526666;0.08150972197510893;0.006647835524132984;146.0;0.14332397788429307;0.07302823689015875;0.005338933975290749;145.0;0.14740686445907952;0.07804452996553954;0.00610247515684429;151.0;0.14760396627431685;0.08281759994529785;0.006871975414506818;155.0;0.14918447764827353;0.08534005156318529;0.0072960402209387085;164.0;0.15002574868848625;0.08621343267769285;0.007448588728102068;159.0;0.15007602580686535;0.08723429138428851;0.007626110201283521;162.0;0.15172892134625063;0.08729645598088288;0.007633894524466547;165.0;0.15374157928618243;0.07751459026199865;0.006019432558355572;163.0;0.15187146733765483;0.0725217116452302;0.005268732061868712;150.0;0.1443895265600598;0.1013776003125466;0.010293028116303815;161.0;0.15988922415579454;0.11069155244444669;0.012269694675745964;153.0;0.16542806248477823;0.11346253677512148;0.01289675014034793;154.0;0.16622862335252833;0.11405444404772455;0.013041099514013797;165.0;0.1651478200249982;0.11431637376084565;0.013102469076628874;171.0;0.1639007790330279;0.11100127058427195;0.012354254921178915;173.0;0.16152151943085907;0.10485105985870577;0.011023461873780577;172.0;0.15751033665726824;0.0826768485667999;0.006850335458622773;159.0;0.1515246523250076;0.06914584809719107;0.004796533131903072;160.0;0.14169961913198398;0.06810790034245587;0.004652979860400224;163.0;0.14238355676831904;0.07166081625588154;0.005150039356995683;162.0;0.14545287530586457;0.08400761658164904;0.007078337208967493;160.0;0.1526326390266382;0.09157424921296561;0.008409302592282404;158.0;0.15745115621054692;0.08393361305287515;0.0070634522912450875;165.0;0.15358257333932399;0.07605812113626918;0.005800512128177175;167.0;0.14902840479272536;0.06852419228635376;0.004710144608231517;158.0;0.14068546319110975
0.13317835178887802;0.017785701383408185;154.0;0.18889788284553582;12.0;0.14419043947435659;0.02085162657425802;151.0;0.1944086482740294;0.14276739024733934;0.02044791039114883;151.0;0.1924543836273089;0.13305719446242711;0.017761143036227434;154.0;0.18555721628743496;0.12500715388823194;0.015677307249544598;148.0;0.17987330959819403;0.1168774322438902;0.013703971215224032;148.0;0.17366111522208408;0.11222148822284199;0.012634056899085852;151.0;0.17086142251122577;0.1164531810382479;0.013602203421650262;150.0;0.17954366767546254;0.10483985596043982;0.011025796078877548;149.0;0.17131276919337463;0.11207533258464007;0.012600342691269069;152.0;0.17364655116040512;0.11685646349543491;0.013698664211122456;154.0;0.17573367220511682;0.12233670484443952;0.015013016485586575;155.0;0.1785158118667022;0.12403544773870176;0.015432268560276416;158.0;0.17913600070196417;0.12114826510924327;0.0147212307719187;156.0;0.17935639206432485;0.11010596425967892;0.012160648240997284;154.0;0.17665147414565405;0.09903612287946126;0.009836314617456128;148.0;0.16868519172750418;0.1085841866871915;0.011828778417550548;146.0;0.1676434072366299;0.11844085754464385;0.014073501256985248;140.0;0.1751460263336635;0.12199831334580677;0.01492965921572283;148.0;0.17675569952726952;0.12366429448724352;0.01533723162403155;151.0;0.17527810665491847;0.12303163289583173;0.01517948973816436;150.0;0.17205303056784305;0.1179184779228099;0.013944441217991816;150.0;0.16712304312035905;0.11008267201304206;0.01214918783204968;147.0;0.16015858720147255;0.0873429096667321;0.0076534721006849375;144.0;0.156121649519698;0.07608357438727806;0.005807692323623129;153.0;0.14755982881209304;0.07313299614731544;0.005365977203561969;149.0;0.14753572383728147;0.07458598146961334;0.005580642241736752;146.0;0.1491736558075009;0.08753820317670646;0.007685408510801326;143.0;0.15827225199814188;0.09710783803690151;0.009456481069558313;140.0;0.16417436445981634;0.09112750055060749;0.008330960358978602;147.0;0.1625962441041298;0.08249138318568425;0.006827056490066522;139.0;0.15903834058545763;0.07381873639060772;0.005466940137491035;145.0;0.14302102523221513
0.13045701532342638;0.017051221231908255;153.0;0.19095226865596027;12.0;0.13955914499954009;0.019506752684344635;154.0;0.1968563335141612;0.1377303220360128;0.018990620761802704;152.0;0.19906747054888355;0.1306512750589851;0.01708362062535989;156.0;0.1949509146807212;0.12502235933681058;0.015631243941369943;154.0;0.19009928999951828;0.1184310091059031;0.014021774589536231;155.0;0.18359177382986264;0.11351522207306146;0.012878008549844654;162.0;0.17942239922799388;0.11533148481603334;0.013327036629160188;152.0;0.18429501559160844;0.10321218898331957;0.010665163719063571;155.0;0.17332730621074574;0.10927382452484971;0.011957493486153938;157.0;0.17431301183026487;0.11259797040293723;0.012692955358459995;156.0;0.17574076131245586;0.11701300103732801;0.013709431018914926;153.0;0.177385985779716;0.11677284800736851;0.013651883319329716;156.0;0.1773385792949397;0.11236121849934466;0.01263023913762721;154.0;0.17739334360114337;0.10262352220879575;0.010542927562850149;154.0;0.1750331242660619;0.10030935231717976;0.010072547537761767;153.0;0.17291348319332792;0.08844459545369338;0.007841058082158514;150.0;0.15892949424535197;0.09731800671252473;0.009497715138744317;147.0;0.1650378319744582;0.10000741876430887;0.010032027202765357;154.0;0.1666525506995117;0.09932189348754321;0.009896966771281296;157.0;0.16555476797440055;0.09723262916062674;0.00948486629696974;158.0;0.1618393323154221;0.09095389934683698;0.00829948399296748;151.0;0.15647182823711486;0.08366893597017605;0.007023373758942257;150.0;0.14986160240655377;0.07234746946215022;0.0052504239422574;145.0;0.14698610092390338;0.06584292169667247;0.004348736064333598;149.0;0.14105861344477447;0.0636953096602082;0.004070216130987303;139.0;0.14106453236985933;0.06210543492090876;0.0038694144360648325;144.0;0.14039870120887546;0.06922381674576866;0.004807609569054083;142.0;0.1455103866722615;0.07642510093058509;0.00585982605760585;144.0;0.14998866715200576;0.07009165502838598;0.004928828767643609;142.0;0.14857082588917825;0.06403973417082919;0.004114404759221887;140.0;0.1477173480562511;0.06381971583169929;0.004085768419277265;137.0;0.13831878457371546
0.09074307318591239;0.00824085377284651;161.0;0.1652392533428978;12.0;0.09720544565521566;0.009459951259961432;156.0;0.17109044158875028;0.10064222712309043;0.010151525455198174;152.0;0.17462987440839012;0.102621236001821;0.01055819076868829;155.0;0.1727920861390682;0.10441105782892576;0.010928198889217654;157.0;0.17096297025626633;0.10373124293210413;0.010786304966109583;158.0;0.16690594592724364;0.10069124114377638;0.010163595233800869;163.0;0.1636528642017922;0.0835898954100869;0.006996082481795518;160.0;0.15941933683835752;0.09113923981480469;0.008324667337033319;152.0;0.15872641021004694;0.09464191429206781;0.00897452991395339;162.0;0.1592639857609763;0.09611028127052428;0.009254744849699207;166.0;0.15904531891071177;0.09572268230058165;0.00917743125216377;162.0;0.15750520127377476;0.09424796267792214;0.008892959018590463;159.0;0.15723876686521637;0.09358116037658341;0.008763275580963481;157.0;0.15831013061996918;0.0853087890628217;0.0072791884248891384;163.0;0.15703970825171518;0.08958248724940286;0.008036957153220005;150.0;0.1589329212839878;0.07556571256650185;0.005728793471058982;149.0;0.1554407390919088;0.07853014722960246;0.006186259887809827;151.0;0.15578881642998071;0.0803246766307595;0.006471198520850159;151.0;0.15545634101563466;0.08325578157652837;0.006949849419251673;158.0;0.1553162990160164;0.08420872088869613;0.007109524056844571;158.0;0.15348836799122728;0.08172301980219705;0.006696297378381422;155.0;0.15025765901471888;0.0768787659161821;0.0059261534361239945;157.0;0.14680142973103522;0.06666013489351458;0.0044579014058642044;142.0;0.146100352914106;0.06102319719904958;0.0037344344799440433;151.0;0.13684488801716574;0.05953573285463989;0.0035539610201845316;153.0;0.13627081640975558;0.060575951928178044;0.0036784950397291205;157.0;0.1373707558142241;0.0700297426808675;0.004918081844541872;155.0;0.14387584374257734;0.07697048284070199;0.005940804887262131;157.0;0.1489963213331653;0.06505303480056317;0.004242545985682754;152.0;0.14414800794312063;0.057693606492047425;0.0033375157700249285;157.0;0.14235393490808823;0.05825092389067741;0.0034016750592031366;143.0;0.13499954464523825
0.08074221618037546;0.00651963866116386;155.0;0.15064718042065864;12.0;0.08595651511035378;0.007390566636541929;151.0;0.15621409458801866;0.08829627974884588;0.007792543317472591;149.0;0.15802013377446786;0.08870771194929934;0.007855868388323178;146.0;0.1551349047826885;0.09052709118561666;0.008182240597351634;147.0;0.15351616489133263;0.09087086739655763;0.008238696793535318;143.0;0.1514720256937619;0.08956598658625696;0.007998284234599516;144.0;0.14987371846353875;0.07286411114331638;0.005308013264720703;151.0;0.1430681343506634;0.08073674764229356;0.0065087237918570635;148.0;0.1455612651061388;0.0863179324687977;0.007439499339110573;149.0;0.14757153055092773;0.08860284002679451;0.007834515049482604;146.0;0.148407346989647;0.08881231202193066;0.00786845024781394;144.0;0.14770157748942347;0.088450775410273;0.0078020288959538605;140.0;0.14850158945752603;0.0878427020416713;0.0076967863088849625;139.0;0.15035392513232748;0.08188691568632243;0.006696672096551704;154.0;0.14829007391818336;0.07675688366288576;0.005883870281911565;145.0;0.14325746956034097;0.05989787182592993;0.0035978325628818705;141.0;0.1475184276514837;0.06130288007030011;0.00376771245674034;143.0;0.14783943876185873;0.06540145618889656;0.004289032092079095;147.0;0.14683816828154922;0.0720267881365736;0.005201649716141311;153.0;0.1447867994605922;0.07559236337902647;0.00572929149089252;152.0;0.1433595692782684;0.07538672987252705;0.005698278723271899;152.0;0.1411457422131802;0.07179277612678335;0.005166702304482267;152.0;0.13907430902350076;0.0550328595763867;0.0030372431192939343;139.0;0.1373477713886556;0.05589930349142687;0.003133679800243403;154.0;0.13296907823566628;0.05494627214071546;0.003028151002582793;159.0;0.1333187106272092;0.05578812897248333;0.0031210189468206784;161.0;0.13376881710234206;0.06506147628109764;0.004244853953280417;162.0;0.13940684286328248;0.07289023235488729;0.005327871223810453;160.0;0.14501461187167466;0.06387932879571152;0.004090682739950015;156.0;0.14126909728073753;0.05541760424141627;0.003079261888310747;151.0;0.1391478360117832;0.05313375757565847;0.002831928475329245;157.0;0.12959003795959972
0.08759700728614682;0.007697827896700361;153.0;0.15645545039978084;12.0;0.09465452211028645;0.008988333572268862;154.0;0.16273713179877733;0.09688046659386756;0.009416164480884864;151.0;0.16615996486516352;0.09391353860893017;0.008848166460968278;143.0;0.16452316750261092;0.09204046789239234;0.008498152386833236;144.0;0.16240724779480334;0.08911021072472418;0.007965990191381611;137.0;0.15887144498471958;0.08635819046609247;0.007481376662840502;139.0;0.15556758253017275;0.07798964756101488;0.006101315439163298;148.0;0.14964581220231324;0.0839612409701377;0.007072470565019239;162.0;0.1497280237763016;0.09076343866305261;0.0082647875720903;151.0;0.1521804984548162;0.09213912598163075;0.008517362075683777;145.0;0.15378691028129685;0.09073938749192074;0.008260483509592112;144.0;0.1528582065990646;0.08993730747708709;0.008114633641239459;145.0;0.15275821697046443;0.088292395961281;0.00782069312593811;152.0;0.15404444603614872;0.08303957391595629;0.006917285074610506;155.0;0.15140761731765068;0.07913437300400479;0.0062824084593850246;159.0;0.14736702144576933;0.051491708039170636;0.002660068243000463;152.0;0.13925929751850383;0.05539021266248426;0.0030781008514710415;150.0;0.14169459191631414;0.058275664891414794;0.0034070880235281516;159.0;0.13991898343043058;0.06235860752346405;0.0039009315103393574;159.0;0.13565275273151717;0.06551000025628134;0.004305212188843777;157.0;0.13340228398916934;0.06520725257193001;0.00426494178978544;150.0;0.13139409394638618;0.061969841052972936;0.0038522330755588175;148.0;0.12931593213507556;0.04673020189728017;0.0021908154767670673;162.0;0.13033702345204604;0.04702074423594193;0.0022148293697708847;148.0;0.1251192514727516;0.04740621804748502;0.002250618860152108;148.0;0.1270351917423377;0.045612551759934644;0.002082283123969024;153.0;0.12752118104349702;0.04890487521819472;0.002392898073327151;145.0;0.1292430783100531;0.05426670463631268;0.0029451240337035113;143.0;0.13405343464797156;0.05236069184004867;0.002745740247503239;152.0;0.1359651756855438;0.04804605265359613;0.0023153126636616286;154.0;0.13592171082160426;0.04740363030637805;0.002252446339573947;157.0;0.12330385481342092
0.09037374714155043;0.008189726795883128;158.0;0.1589555882224069;12.0;0.09653266349210934;0.009345092739598115;160.0;0.16435436977789103;0.09651192708679256;0.009341363972908821;158.0;0.16500326718270247;0.0919344977755511;0.008477036849978825;146.0;0.16223635331943298;0.08889463609495077;0.00792731432441;148.0;0.1603489490757954;0.08576815688361898;0.007379322051619479;145.0;0.15633949611624492;0.08378825269259316;0.007043122088500128;147.0;0.15391094495256508;0.08103600051123108;0.006584207449203902;161.0;0.15194656964960326;0.08611071782511523;0.0074351516055205695;145.0;0.1494935788304984;0.09054676758458545;0.008215286854486786;139.0;0.1506080016538072;0.09042137398104873;0.008191157003149223;141.0;0.15047673595263067;0.08784990381188254;0.007729170004951713;142.0;0.14967875991902774;0.086814790695776;0.007546507633791747;148.0;0.1493207904284128;0.08644363387455398;0.007480839795143553;154.0;0.15084926970596246;0.08307275003617323;0.006917506912257366;138.0;0.15003986623760038;0.0824217271526027;0.006812628152198419;146.0;0.14800419131089743;0.05224381754809405;0.0027347261078920835;153.0;0.13877763212163158;0.05519040090206623;0.0030508640533649977;152.0;0.14007051710892998;0.05424211217790198;0.002944146847570292;152.0;0.13849734551324774;0.05186556910117864;0.002689973408954572;154.0;0.13369103693554604;0.05033205552295099;0.002531126968954584;150.0;0.13061934207381612;0.04843331068918314;0.002340430525878081;147.0;0.12751476309653578;0.04630672003763032;0.0021409193911114655;144.0;0.1246041219934825;0.04692153430720327;0.0022045070998871663;162.0;0.13325120162404522;0.038655022647125316;0.0014928329777241871;146.0;0.1196855806480985;0.03899737227740428;0.001520080867419598;149.0;0.12220745475052501;0.041373242407035285;0.0017137040757702077;149.0;0.125637705473332;0.04812382048359274;0.0023205733611094126;139.0;0.13054178042443682;0.05311006405851953;0.00282704443455106;142.0;0.1353222382524379;0.051906116009012175;0.0027002828929994344;152.0;0.13625815812672226;0.050195129317835645;0.0025246217070861725;151.0;0.13893824453344192;0.03839066984954444;0.001470765660546568;150.0;0.11833565432622327
0.07724011503019056;0.0059854538478353305;153.0;0.15725860328170851;12.0;0.08052073084100478;0.0065035169820831865;164.0;0.1598275989228985;0.0802056969681657;0.006454034859422188;164.0;0.1596770967414938;0.07907694816884839;0.006273674117537908;150.0;0.15799067310402326;0.0787178315133844;0.006216615915061492;149.0;0.15679134071444872;0.0785571772837653;0.006190988982199823;144.0;0.15380977779190327;0.07797927382973228;0.006099828932375794;145.0;0.15182553467324494;0.0744128534320909;0.005555329482668124;156.0;0.15441786445308808;0.07371611726925012;0.005447298268487637;131.0;0.14558005734653068;0.07609770703803462;0.005804293850883054;130.0;0.1451429248273598;0.07577259597592485;0.0057558582889250896;132.0;0.14441922388598355;0.07549940824309966;0.005714430621994355;133.0;0.1457408325309811;0.07495508673919439;0.005634523829158773;139.0;0.14633241892808982;0.07414543492936577;0.005514111656380293;140.0;0.14781359629129162;0.0702037998816654;0.004941895063797558;137.0;0.14736973559613734;0.07035058315015605;0.0049585763245576005;130.0;0.1444257609243782;0.0583259678700567;0.0034088466471514454;150.0;0.14776980534389716;0.06203049785661009;0.0038552335241986103;150.0;0.1483267253679961;0.061942621419777924;0.0038457723910900743;147.0;0.14701992031686456;0.05910857056268431;0.0035025640258677902;149.0;0.14204469006878895;0.05777726141079283;0.0033464330158643613;142.0;0.13950611345001473;0.05667894372558881;0.003220108656863818;145.0;0.13665011586455714;0.054633486572915946;0.002991817786715276;144.0;0.13412811823420778;0.05266294118686063;0.002777146661955943;140.0;0.14230344384915386;0.04815679952576545;0.002326461951642749;150.0;0.1276839815227374;0.04762778519272373;0.002275731009316123;153.0;0.12945530726428123;0.04980998333578083;0.0024891445658056263;150.0;0.1318238889218934;0.05730516256792078;0.003294142381502618;149.0;0.1376404010052791;0.06215041465965664;0.003873352539378315;150.0;0.1424962132030072;0.05795388004759713;0.003369596103681336;147.0;0.1419532543653899;0.05418546267631903;0.002943672367080793;138.0;0.14310361490544007;0.04904404369533935;0.0024128044441506656;153.0;0.1269782859954995
0.07421643056562703;0.005524940356842448;157.0;0.15280497080643254;12.0;0.07757927852952372;0.006036516090952954;166.0;0.15526996783733504;0.07789562043660654;0.0060870948169758805;156.0;0.15516195235102276;0.07695781111273231;0.00594039355892818;152.0;0.15424715848269327;0.07686612972891131;0.0059262408749855755;153.0;0.1530274913953275;0.07649353585983663;0.005867072242654089;151.0;0.15031265415614078;0.07589214619831636;0.005773934458162455;151.0;0.14828565880746536;0.07105560462891095;0.005064230744134224;151.0;0.14942072126538597;0.07114754945614143;0.005076422712700051;157.0;0.14216233552793198;0.07378904625190284;0.005462544261487683;158.0;0.14173411872754368;0.07495558923432741;0.005636753781480941;154.0;0.14195825625657132;0.07606902413041612;0.005805489083575503;147.0;0.1438675087889176;0.07707391424778637;0.005959798387449327;150.0;0.14571422369141346;0.07753932206909445;0.0060319983885622425;148.0;0.14733281188099817;0.07073758801438734;0.005020294063681332;160.0;0.1441631941000716;0.0701324501580633;0.004932883203583753;155.0;0.1446888909317949;0.05573441506164157;0.003111484651114645;145.0;0.1442848013850644;0.06322859752929394;0.0040026893490946016;145.0;0.14832216708488372;0.06466404342553121;0.004187180929739805;146.0;0.1487541131811102;0.061723304445676516;0.0038159997682470637;147.0;0.14225758818552514;0.06037403236150203;0.0036510624062970486;142.0;0.13872787826407496;0.05951550744613687;0.0035483739945439694;142.0;0.1358631613851655;0.055772302295522574;0.0031171412795996892;141.0;0.13293435979815746;0.04958551107590474;0.002465049518137934;142.0;0.13783764704618937;0.045620285190067264;0.0020836347700642914;163.0;0.1243873447312255;0.04534967817994774;0.002059117376159868;162.0;0.12538378877929499;0.0451825111015859;0.002045051066251215;154.0;0.12588077783860607;0.04932985374541244;0.002438824501853523;151.0;0.12950641847033673;0.0540874086116537;0.0029314947105267886;145.0;0.13411383117195064;0.05251389155971804;0.0027629999444387394;150.0;0.137466604194395;0.05188771931208481;0.00269901922025403;152.0;0.1407326366094107;0.047084998073440805;0.0022202971793690985;160.0;0.12423704633416173
0.07346271078129087;0.005412345669266714;147.0;0.14314894501511038;12.0;0.07760466882176192;0.006039496109833625;148.0;0.14767393703409712;0.07735637908871197;0.006002066536646009;142.0;0.14672122701527976;0.07546670539145954;0.005713124459966754;141.0;0.1441821163156552;0.07433569600019585;0.005543651888039114;142.0;0.14243014576941387;0.07367846178013387;0.0054462934654698715;146.0;0.14180055742376138;0.07263158176812316;0.0052926175455423755;147.0;0.1408235306725113;0.06670762961823024;0.004463838316213813;141.0;0.13730582203313615;0.07777573922147751;0.00606882868801412;155.0;0.14309751998189738;0.08414707702540883;0.0071038679339163425;156.0;0.14461167585562112;0.08535320137685336;0.00730895341042499;158.0;0.14487050860025746;0.08293367753389001;0.006900278742262391;150.0;0.14401242749573218;0.08164370376998653;0.006687122714233805;149.0;0.1443866685806377;0.07832068757806133;0.006153813550420889;144.0;0.14322771888801286;0.06912395434976383;0.004793517683549133;144.0;0.1376397994948776;0.0729013739520702;0.005331961502330095;151.0;0.14211356721121193;0.05957838012944615;0.003561046377036791;147.0;0.13635662344343014;0.0671946090868202;0.004529570975752746;138.0;0.14129857734653697;0.0677728305168367;0.00460809869705505;138.0;0.143258873551111;0.06274921906230632;0.003950204187344031;142.0;0.13676369832529434;0.05958619699893438;0.003561584594038257;141.0;0.13213758424426209;0.057069862393189535;0.0032667825829998803;142.0;0.1286310474408084;0.0528544168303839;0.002801706347209511;142.0;0.1250239374146582;0.053709070821280104;0.0028939101232379515;143.0;0.13169047968608713;0.042262096372292286;0.0017918236029425016;155.0;0.11856376256469521;0.044206653162667364;0.0019606053329845096;155.0;0.12054456430587265;0.044056384309404555;0.0019472249712553587;152.0;0.12019777538298027;0.046907414774529636;0.002206801598614873;148.0;0.12259742079488488;0.05076003086717244;0.0025841811579595418;145.0;0.12533899287408423;0.05271951467088009;0.0027882697730993913;151.0;0.12910780168577776;0.05641541010650247;0.0031931010475624226;153.0;0.13371956532844015;0.04059184580456032;0.0016530857181274688;151.0;0.11726228023690353
0.05980201880845996;0.0035878820123265917;139.0;0.11854937030357342;12.0;0.06220624067783999;0.003882247723955485;141.0;0.1217580509675;0.06301072659240708;0.003982986602853503;144.0;0.12146899288601588;0.06401078586247211;0.004110665288131726;139.0;0.12026265854374014;0.06406346419134785;0.004117337394850096;140.0;0.11975601751736245;0.06471696290851438;0.004201968019571746;141.0;0.12027338177941535;0.06386360799278956;0.004091898150618099;142.0;0.120381486853029;0.05520209077300786;0.003057218007072757;134.0;0.11513814146397874;0.06664811327830247;0.004455481878346984;145.0;0.12544410287568478;0.07434036632164627;0.005542886708996463;149.0;0.12921847454131682;0.07490945345799688;0.005628915336981606;149.0;0.1292549486380029;0.070951351296531;0.00504993846804475;144.0;0.1265728680233352;0.06792191567326138;0.004628301171311002;139.0;0.12419146961267674;0.06278105915520786;0.003954085693048899;142.0;0.12146087065334853;0.054932863494059805;0.0030273570458481157;135.0;0.11638397494436373;0.05878213891902432;0.003466116047236594;138.0;0.11952408921643054;0.06744901217561781;0.004563635880936962;151.0;0.1435961181047288;0.07087938331703152;0.005036303683859862;146.0;0.14466489742520194;0.06954839778663215;0.004848208391401603;147.0;0.14462587888335393;0.0642872741053474;0.0041432495307700355;152.0;0.13920349247365058;0.06259505469608434;0.003928192201395569;149.0;0.13617092581759457;0.05987119619539647;0.003595014808525941;149.0;0.13430723741997638;0.056715491956338696;0.003226452580498687;146.0;0.1314067000931488;0.06163588271648003;0.0038114423451197977;139.0;0.13933449059744182;0.04751394736756379;0.002264893100382929;146.0;0.12884848717850061;0.04891750744749457;0.0024006352184930534;144.0;0.1288593446948355;0.04888841317645853;0.0023978615223999777;153.0;0.12852604292739603;0.05231871893382759;0.002746217494359157;156.0;0.1323773449288255;0.057072058434155755;0.003267979050476328;155.0;0.1368477820460518;0.05426638505428296;0.002954427056313755;154.0;0.13332688837117873;0.05445900672546139;0.002975478545486342;157.0;0.1313196718991937;0.04689679788590655;0.00220646762931607;144.0;0.12711509829958748
0.11497750748167622;0.013262814550707974;137.0;0.13756475806817386;12.0;0.1244599730858938;0.01553995547714286;137.0;0.1426779960681049;0.12339166585739235;0.015274803810670977;139.0;0.1440891108208302;0.11625078769661572;0.013557678393526928;139.0;0.14057880822374924;0.11191268251052258;0.012565188357682788;143.0;0.13941580890096114;0.10903432549105103;0.011927279032072233;146.0;0.13961568872421798;0.10682456494255685;0.011448767076368846;147.0;0.1395167321162646;0.09838071042705591;0.009710146029314812;143.0;0.13142538389294053;0.09692061644865552;0.009423870278100108;154.0;0.13684815505361686;0.09903094667740026;0.009839011810170573;149.0;0.14046830127919574;0.09881252164274935;0.009795792871945425;144.0;0.14136311754261036;0.09753505815600816;0.009544096114866925;140.0;0.141616027917976;0.09718076381281739;0.009474952850810375;135.0;0.14072360398326442;0.09721859469320278;0.009482352060695419;145.0;0.13994353077250823;0.09105270976855623;0.008317708166764368;143.0;0.13656064358255218;0.09274379553339478;0.008629305182224406;152.0;0.13372606408660084;0.07354992726993272;0.0054254545191858026;142.0;0.14986234678968013;0.07906840158014822;0.00627186463496997;145.0;0.1528580544657739;0.08013382238703719;0.006442268361574071;148.0;0.1534344175456507;0.07645662418978609;0.005864711807299166;154.0;0.1487405814333801;0.07522570556929371;0.0056770202154092335;151.0;0.14648600452222835;0.07176092025909668;0.005166304969571416;148.0;0.14503714584593755;0.06807402343633887;0.004648159765206675;144.0;0.1423758638940554;0.06622231444528531;0.004399393132706033;146.0;0.14364369393188364;0.05495146087036144;0.003028408088133399;152.0;0.13344017861666346;0.05339589812415494;0.0028597252076625903;152.0;0.13139588536663815;0.051579296500274936;0.0026686219348780863;160.0;0.13166325605239906;0.05413578330100815;0.0029393933182031663;163.0;0.13532418378758101;0.057842200908066126;0.0033545932262997223;155.0;0.13885927947005866;0.05667104196326211;0.0032193981818417973;148.0;0.1356835737049396;0.05714989184095;0.0032761379157978153;153.0;0.13516760037314124;0.05411010754147626;0.0029369932215075095;153.0;0.13271764117096624
0.1336027133712399;0.01790230256174086;143.0;0.1715759338779382;12.0;0.14373669484355583;0.020723487550084064;141.0;0.17799574515782546;0.14412393423860392;0.02083442617989777;140.0;0.18014429245609195;0.1402391103385966;0.019723926879545994;139.0;0.17789604091336714;0.13858834710167783;0.019264501427336114;143.0;0.17686563765472824;0.13625254201509626;0.018620296891136853;148.0;0.17508338444292088;0.13293785008656733;0.01772447955446924;151.0;0.17343254040796172;0.11645038132429301;0.013601100546340332;152.0;0.1633046504031039;0.11753938748352594;0.013858504858058214;151.0;0.16358661729606555;0.12030335621250045;0.014518380635507177;141.0;0.16579128251207254;0.12083957528843557;0.014647473384055639;141.0;0.16709694011875778;0.12135024078942944;0.014772265113122816;137.0;0.1684135781701246;0.12220404004215685;0.014981118300333766;136.0;0.16857674993130908;0.12106990293712402;0.014702791049670656;141.0;0.1689518704616032;0.112267042176793;0.012642524504459914;145.0;0.16529573714494217;0.11154537031865758;0.012481472645232283;154.0;0.16148356928532465;0.07622245904887101;0.005828658170814467;138.0;0.1527128363361144;0.08451736763008899;0.007166402157272697;144.0;0.1581061035194847;0.08817683419866222;0.0078000892628871605;148.0;0.16009723710206658;0.08537550131197331;0.007311535709691784;154.0;0.15678939918481602;0.08271958932447102;0.0068633446646157465;155.0;0.15377767248144883;0.07742692975292936;0.0060134972644547285;154.0;0.14935925346542028;0.07233141358750962;0.0052473268947604125;151.0;0.14569865853521655;0.06710544171220335;0.004515481819135063;151.0;0.14484911330439892;0.056427195081228586;0.0031919505126982665;145.0;0.13251162418914775;0.05444927272520184;0.0029721180857225945;152.0;0.13151042218543219;0.05375192160208662;0.0028954454446396905;148.0;0.1332794554077324;0.05888220618187602;0.0034729042074068037;137.0;0.13866194059127912;0.06262149097126765;0.00392750418306603;129.0;0.1415388679584447;0.061307515059516204;0.0037689434107882245;133.0;0.14126883316181224;0.06349151677128943;0.0040427012136825605;135.0;0.14475413925573236;0.05376374034541409;0.0028974430267883454;147.0;0.13028772295333302
0.10525630611925772;0.01110771674088419;160.0;0.1754166373989696;12.0;0.11289776793925793;0.012766970169370367;154.0;0.1808997752911484;0.11614767307568517;0.013514374999156226;150.0;0.18365125212472416;0.11576317023997412;0.013430849004657382;151.0;0.18195583241807897;0.11627483311228219;0.013552602566310447;153.0;0.1796396793332049;0.11504177655441734;0.01326718825246289;154.0;0.17501607479647255;0.1118674699124548;0.012550948089258496;155.0;0.17178209770032676;0.09581977059881591;0.009204405555257643;161.0;0.16776741771571066;0.09947234954200695;0.009926682205864531;149.0;0.1622855919498866;0.10417970253243991;0.010888092093481488;148.0;0.1645224942512443;0.10490282767089432;0.011040010791488782;149.0;0.16545093427567395;0.10440114674745228;0.010933282289084141;149.0;0.1643288860235246;0.10552381729190718;0.011168566768534954;151.0;0.16395776748360752;0.1046151626552282;0.010977806951945595;152.0;0.16611760466377504;0.09928502845936818;0.009884932874475765;153.0;0.16670503039724116;0.0939883973163521;0.00886196385695714;150.0;0.1609790167737427;0.06680684288810294;0.004468405144889951;164.0;0.14930453568561336;0.07204687000458197;0.0051958648204257826;167.0;0.14987943800130182;0.07514101989615038;0.005650802705740365;173.0;0.1496946292687307;0.0737870487013461;0.005447301137749618;170.0;0.147764256598849;0.07287450350346286;0.005312102769219137;170.0;0.1464494317271551;0.0689195722357846;0.004745159401940047;171.0;0.14279958054817746;0.06494613078368602;0.004213138449497738;168.0;0.1399005508065296;0.05659381879864048;0.003201701390585024;173.0;0.14083582373498735;0.051498430380873914;0.002652292022049985;160.0;0.13298579165040364;0.050209644557014224;0.002522712510682656;164.0;0.13267292470764655;0.05055999304074819;0.0025570481203052425;159.0;0.13503861867796263;0.05675463596322988;0.0032249775543761973;149.0;0.1409475319527516;0.061049260180797725;0.0037311679254476873;144.0;0.14433139485433807;0.05549905235266162;0.00307427405980899;146.0;0.1433330020174193;0.05542200252691088;0.003063007663382635;157.0;0.14385131284725336;0.048116835474272084;0.00231470495198782;155.0;0.12891692916421205
0.1026714485663217;0.010571408336628764;161.0;0.1721783297365909;12.0;0.11083768433796054;0.012320500149650093;153.0;0.17701384864990147;0.11195784228673512;0.012567468645424958;156.0;0.17866364112310734;0.10848995368458583;0.011799146196236255;160.0;0.17630531810874153;0.10733885509359016;0.011548783913026307;161.0;0.17372628684213706;0.10569435032373549;0.011193488412730589;159.0;0.17040759985789172;0.10215298200803098;0.010453991826580205;157.0;0.16704480406549824;0.09078590631891152;0.008264265460773242;158.0;0.164321021426667;0.08821481763531086;0.007803920158715771;160.0;0.1603662814229204;0.09185805539515411;0.008461206559210628;161.0;0.16322120684794766;0.09188911098979438;0.00846671110302729;160.0;0.16381054955728813;0.08925228919959656;0.007984878543456477;162.0;0.16192347191057285;0.08887421298186446;0.007917762266229134;160.0;0.1612574068208842;0.08967124353682966;0.008059148183478597;161.0;0.16188170998460927;0.08891820033894075;0.007921199742944465;159.0;0.1632797041173456;0.08588660899891168;0.007397243642130437;158.0;0.15918429166372502;0.05322256064960174;0.002841133662169179;167.0;0.1338275398957539;0.05465312719109915;0.0029951361797574726;157.0;0.13210590263410807;0.05512768458869906;0.0030453550999096223;159.0;0.13001101778660276;0.05321291992512417;0.0028362322490454893;146.0;0.1262119359380725;0.053854936486525125;0.0029062599343837596;141.0;0.12458098823407032;0.053414244835871365;0.0028576839715997084;145.0;0.12390295810551558;0.05191947944290963;0.002700129974219033;149.0;0.12325594225296069;0.04569944822507808;0.0020930342039825033;165.0;0.12644447701285133;0.04367670855698281;0.00190951229110281;159.0;0.12085941054083006;0.04387273003028374;0.0019272925952803063;166.0;0.12016878136625675;0.04458285325315058;0.001988821429201472;167.0;0.12224847107496166;0.048612236287189435;0.002365007557667508;162.0;0.12457032580978016;0.05100860724375609;0.002604739347394023;156.0;0.12748130115446482;0.04484268926560733;0.002013744852786794;154.0;0.12777752774256063;0.04466516868636846;0.001999622257181756;162.0;0.13017353039775656;0.04046577880007553;0.0016378044280462754;163.0;0.11761447929475206
0.09075507145435492;0.008255108267365087;150.0;0.164841412851262;12.0;0.0974168874939397;0.009505574057711644;143.0;0.16946182771224585;0.09659605435932232;0.009342923765472709;145.0;0.16958917524151096;0.09399104558882329;0.008846742845727857;148.0;0.16668868297035486;0.09361449865186548;0.00877505420605193;150.0;0.16396661464065446;0.09198146874672809;0.008472003757664343;150.0;0.16077246856333874;0.0889381360062963;0.007927848705815817;150.0;0.1578713236261203;0.07860444624546153;0.006190933740646797;145.0;0.15706107673888287;0.07004324637968151;0.0049218335927059;154.0;0.14894882293635217;0.0736387826907759;0.005440375699901238;149.0;0.15257288366938354;0.0759940808467576;0.005793929484780553;150.0;0.15484455123064897;0.07707430129734988;0.0059597604197188445;154.0;0.1557261934088572;0.07606417549586268;0.005804418287296388;151.0;0.15579460422463265;0.0730158697269331;0.0053481018193824535;146.0;0.1537379733202352;0.06963048826314022;0.004863039700793707;144.0;0.15265855575922493;0.06732477259909574;0.004547024307599728;151.0;0.1456403785807309;0.0430618332453311;0.0018570702954927216;147.0;0.12530699076232055;0.04487792027552255;0.0020181218297047688;139.0;0.12891950208022251;0.044574970156123335;0.001990634454552021;143.0;0.1277839873931432;0.0402074548146258;0.001619997349738485;140.0;0.12079243832509876;0.038300855846033016;0.0014695023633382214;140.0;0.11557555401651841;0.03682324926811645;0.0013577948709122983;139.0;0.11252887469575394;0.03536505609611946;0.0012526295066257716;146.0;0.11128463776734343;0.03780137654727965;0.0014312910666129358;146.0;0.11828320910395776;0.03143454747309282;0.0009908581468894135;148.0;0.11038374964033108;0.0328010121881615;0.001079171190830943;158.0;0.10989279675995749;0.03408867523569209;0.0011656260944686938;152.0;0.11046160227487115;0.038028091971540015;0.00145066945412738;145.0;0.11212104225124224;0.04249968559310695;0.001811981855552297;148.0;0.11844458450954123;0.042315042597243266;0.0017959291881788008;153.0;0.12303582942030544;0.044056929499941194;0.0019465548877995685;151.0;0.1270613689585775;0.02920207795652863;0.0008551863939733641;161.0;0.10780410096256542
