rms_s1_ch1;var_s1_ch1;zcr_s1_ch1;wl_s1_ch1;rotule;rms_s1_ch2;var_s1_ch2;zcr_s1_ch2;wl_s1_ch2;rms_s1_ch3;var_s1_ch3;zcr_s1_ch3;wl_s1_ch3;rms_s1_ch4;var_s1_ch4;zcr_s1_ch4;wl_s1_ch4;rms_s1_ch5;var_s1_ch5;zcr_s1_ch5;wl_s1_ch5;rms_s1_ch6;var_s1_ch6;zcr_s1_ch6;wl_s1_ch6;rms_s1_ch7;var_s1_ch7;zcr_s1_ch7;wl_s1_ch7;rms_s1_ch8;var_s1_ch8;zcr_s1_ch8;wl_s1_ch8;rms_s1_ch9;var_s1_ch9;zcr_s1_ch9;wl_s1_ch9;rms_s1_ch10;var_s1_ch10;zcr_s1_ch10;wl_s1_ch10;rms_s1_ch11;var_s1_ch11;zcr_s1_ch11;wl_s1_ch11;rms_s1_ch12;var_s1_ch12;zcr_s1_ch12;wl_s1_ch12;rms_s1_ch13;var_s1_ch13;zcr_s1_ch13;wl_s1_ch13;rms_s1_ch14;var_s1_ch14;zcr_s1_ch14;wl_s1_ch14;rms_s1_ch15;var_s1_ch15;zcr_s1_ch15;wl_s1_ch15;rms_s1_ch16;var_s1_ch16;zcr_s1_ch16;wl_s1_ch16;rms_s2_ch1;var_s2_ch1;zcr_s2_ch1;wl_s2_ch1;rms_s2_ch2;var_s2_ch2;zcr_s2_ch2;wl_s2_ch2;rms_s2_ch3;var_s2_ch3;zcr_s2_ch3;wl_s2_ch3;rms_s2_ch4;var_s2_ch4;zcr_s2_ch4;wl_s2_ch4;rms_s2_ch5;var_s2_ch5;zcr_s2_ch5;wl_s2_ch5;rms_s2_ch6;var_s2_ch6;zcr_s2_ch6;wl_s2_ch6;rms_s2_ch7;var_s2_ch7;zcr_s2_ch7;wl_s2_ch7;rms_s2_ch8;var_s2_ch8;zcr_s2_ch8;wl_s2_ch8;rms_s2_ch9;var_s2_ch9;zcr_s2_ch9;wl_s2_ch9;rms_s2_ch10;var_s2_ch10;zcr_s2_ch10;wl_s2_ch10;rms_s2_ch11;var_s2_ch11;zcr_s2_ch11;wl_s2_ch11;rms_s2_ch12;var_s2_ch12;zcr_s2_ch12;wl_s2_ch12;rms_s2_ch13;var_s2_ch13;zcr_s2_ch13;wl_s2_ch13;rms_s2_ch14;var_s2_ch14;zcr_s2_ch14;wl_s2_ch14;rms_s2_ch15;var_s2_ch15;zcr_s2_ch15;wl_s2_ch15;rms_s2_ch16;var_s2_ch16;zcr_s2_ch16;wl_s2_ch16
0.11678100128069129;0.013669248512636444;149.0;0.1635843843403896;12.0;0.33421745896973665;0.11183073098505769;165.0;0.2181691896546158;1.3441385476487913;1.8122242745136472;156.0;0.3647226875903658;0.18941953035281145;0.03599718432991999;148.0;0.17745218066371637;0.09238266296061866;0.008554187905948285;148.0;0.1476496222547789;0.0884145093559404;0.00783574293359464;146.0;0.14498743822047647;0.090232816329228;0.008164889328477672;145.0;0.14564937437645206;0.10577065489692743;0.011198174780416072;147.0;0.16022248653131846;0.08021405605373445;0.006451067615560079;141.0;0.14092188648400267;0.07803248707691676;0.006104387663654076;137.0;0.14020589737018982;0.08062745255003108;0.006515987076901653;142.0;0.1409573833921023;0.08500175735516942;0.007242636440936902;136.0;0.14370973876284723;0.08063469026515124;0.0065178411840832885;139.0;0.14226636009751922;0.07854756498956181;0.006182876405631948;140.0;0.14244934835034598;0.08760265414780401;0.007688717683150052;145.0;0.14811755623567407;0.008732507655511822;7.650640164601619e-05;150.0;0.06892591268609558;0.15795708923958957;0.025015263315743885;136.0;0.19587786582332392;0.15604448022401488;0.02441121164197751;134.0;0.19723121148698652;0.14197821356730173;0.020205651093589017;132.0;0.18529759923990585;0.12912517014726174;0.016705931009433513;128.0;0.17201582070611016;0.1235488602644786;0.015293977640701631;131.0;0.16661306070921453;0.12084763222413773;0.014632903187438399;128.0;0.16331719649240456;0.1173284034544636;0.013787992899009347;126.0;0.1615500422673511;0.1299727594886238;0.01693027007194681;133.0;0.1770228267539968;0.10927427443400357;0.011961272692938162;129.0;0.15884267808043492;0.10687437005482749;0.011440312442955337;127.0;0.1584844646994107;0.10701354263844244;0.01146973209871885;125.0;0.15871180718930045;0.11057571238440261;0.012244384067848555;132.0;0.15888421318199183;0.1201257997360225;0.014453296688092952;135.0;0.16319167012950428;0.12952872611081467;0.016803884067955466;138.0;0.16818819337358132;0.1213075783993202;0.014738664536835139;139.0;0.16543434445236388;0.11646925239808366;0.01358993742177641;132.0;0.15885795383802634
0.10270558742145196;0.01057071819483154;154.0;0.16781216555554376;12.0;0.36098155996849446;0.1307139479424103;150.0;0.22634094066540877;1.4332058376481822;2.0607543607776866;164.0;0.3832646367795868;0.19151482810586468;0.03679527820069653;171.0;0.17856889624202255;0.08225280032707001;0.006784527678871395;162.0;0.14985438024020056;0.08024700181756013;0.006458316131282526;160.0;0.14778546077522775;0.08485979696226224;0.0072185643361007265;169.0;0.14907603409252257;0.09665761336631681;0.00936833428441722;144.0;0.16863753975451423;0.0755129069968783;0.005716048508787995;158.0;0.14488645037267991;0.07498684706734265;0.005634726922803152;153.0;0.14424476756642074;0.08012188761190027;0.006433227670315764;151.0;0.14558771491469805;0.08748523478755814;0.007668060582957326;144.0;0.148747318800422;0.08447566112656427;0.007149308240673164;144.0;0.1479240892485699;0.08104591260100229;0.006582419446828327;145.0;0.1472691313943407;0.0829416268959594;0.0068916523690475935;145.0;0.14937340808420704;0.009364072588628146;8.786684028438487e-05;145.0;0.06767674470288296;0.1325745650554952;0.01762468668907133;138.0;0.19188209879967166;0.13293256216578736;0.017718011464019384;139.0;0.19271374330512303;0.12746364848172692;0.016291582768537625;136.0;0.18311412611476321;0.121612909585894;0.0148294237323038;140.0;0.17300700719985515;0.11924569980558904;0.014260457239321643;140.0;0.1702814497590881;0.11807666327765268;0.013983515540894059;139.0;0.16747199762198003;0.11638471409070315;0.013583753449660787;141.0;0.16646519705501917;0.11403596067487579;0.013042642246472336;145.0;0.17379172822530922;0.10895009150969165;0.01189913552694485;130.0;0.16263364914649558;0.10698548225392099;0.011477953484960692;132.0;0.16162777776816242;0.10738085514011603;0.011565603453256391;130.0;0.16095881412671975;0.11114061887049462;0.012389483518851972;140.0;0.16095505283274353;0.11914854679442059;0.014240417270145017;138.0;0.16349838575264444;0.12661787089687448;0.01608136602222901;140.0;0.16639828213434496;0.12112074886837516;0.014714404366242936;141.0;0.1639261302752737;0.11469448006449173;0.013187227067283404;134.0;0.16213291412614111
0.07701775528697791;0.005948632051870717;165.0;0.1417714006456841;12.0;0.1713383794298911;0.029206540614010037;145.0;0.14854598723295792;0.5402315891129524;0.2925355034618678;158.0;0.193982837501305;0.09424800562469017;0.00891029667923913;170.0;0.13553299846081204;0.06643293758996274;0.004425252528403593;170.0;0.13312492801235734;0.06493942853157048;0.00423024516178933;168.0;0.1320435582783537;0.0678148104190526;0.004613548515852119;175.0;0.13444524349551837;0.08166132185509702;0.006685351866644514;153.0;0.1446635649859119;0.062137711810050955;0.0038730978786874603;172.0;0.13233765136483347;0.06291922674272706;0.003970742498702199;170.0;0.13253994403897743;0.06627598511553935;0.004405378644576853;170.0;0.1335920191492944;0.07040877622367524;0.0049711931892070516;162.0;0.13461310686259667;0.07125057375755046;0.0050922797259149695;160.0;0.13555183157990106;0.07207659708783658;0.005211330920823928;157.0;0.13659700265343655;0.07379404529939067;0.005462414259380319;154.0;0.13815650167165064;0.010048300907458202;0.00010127132014708869;148.0;0.07070358276355414;0.11279467026045112;0.012743202363309659;158.0;0.1898003246329636;0.1157357383049142;0.0134214953941465;155.0;0.19365107219792307;0.11025978321438072;0.012182833072060245;156.0;0.18729535526666463;0.10263759917415405;0.010554656779250852;159.0;0.1774817583055454;0.10072395252515183;0.010168296935105023;155.0;0.1734631958835089;0.09823816651735903;0.00967170614851827;155.0;0.17051231044096088;0.09536856662400225;0.009112901678373149;158.0;0.16804119291442224;0.09788170809789311;0.009598933699637277;164.0;0.17996069687062005;0.08737409892144363;0.007648453119775748;159.0;0.16245713784304536;0.08400835338829814;0.007068267457617739;162.0;0.16078863162814938;0.08081949133680123;0.006540007320058689;163.0;0.159019536192026;0.0798335221439182;0.006382597195693877;168.0;0.15769214169094464;0.08276183825899444;0.006856290292731347;166.0;0.1586629386864712;0.08630433771169636;0.00745126078283705;165.0;0.1606389755018751;0.08572153343364068;0.007355078158563255;165.0;0.16115995936313268;0.0934963954391515;0.0087573241271902;157.0;0.16434662807294936
0.06735886144626539;0.004543448314598843;184.0;0.13885872157272547;12.0;0.08853533881175227;0.0077661725815939995;186.0;0.13772333379275312;0.22230692041855762;0.04955594411993211;161.0;0.1589962181661594;0.07464462297086544;0.005575613302754952;174.0;0.13220894979177453;0.06085186141067741;0.003702037100277751;181.0;0.12927744356457685;0.059188159627487386;0.003505337958309868;182.0;0.12705219931740258;0.061623359043170116;0.0038034978104722773;179.0;0.13075770858417993;0.070052447693536;0.004912834100442866;179.0;0.1397236233906823;0.055030171558725915;0.003030383891181405;179.0;0.12559972818368606;0.05565705913913969;0.003100897037242754;178.0;0.12645268440445165;0.05989855839644981;0.003589036130639538;177.0;0.12975960058779934;0.06343446730593544;0.0040251711524216536;175.0;0.13288777603614194;0.06358785324246402;0.004047509490089666;173.0;0.13284823270848953;0.06634384227668857;0.004405059575385262;172.0;0.13329727970661312;0.07036240592824872;0.004954681491495605;173.0;0.13444787575453446;0.009831391395981569;9.695901510818355e-05;149.0;0.07250500172228762;0.12253447777301799;0.015063767027123025;153.0;0.19683975000015705;0.1240673939851037;0.015443024671481856;152.0;0.1992120749334268;0.11697669018797167;0.013728217954235395;157.0;0.1919692061363686;0.1104582813082547;0.012240930480772178;149.0;0.18101553641838988;0.11063402320070541;0.012278091874024942;141.0;0.17798717953623253;0.1089649545436642;0.011909607021869684;140.0;0.17535706579273747;0.10573499091801318;0.011214510970167959;139.0;0.17167110356167756;0.10445821610215807;0.010946708198467185;158.0;0.18459598139720246;0.09856117927552131;0.009746476901151853;161.0;0.16487545814379734;0.09610762597234912;0.009267227265467099;166.0;0.16339641123327978;0.09460992871312385;0.00898034974933287;169.0;0.16281954644178118;0.0944330453128843;0.008946871898620814;171.0;0.1618071348375888;0.09607068749488122;0.009260190598663351;173.0;0.16234367272507313;0.09990969522420272;0.01001510667074256;172.0;0.1657336967079359;0.10193604379062315;0.01042538105508748;172.0;0.1673839331912385;0.10589793037852557;0.011251456332745555;157.0;0.16868051753146734
0.06555815558086127;0.004311873275801065;170.0;0.14378091955023192;12.0;0.06482141595061006;0.004215367392529774;173.0;0.1396639323191767;0.09604505322790902;0.009233380009926916;152.0;0.14402019997207544;0.06122288968997688;0.003760384011157569;168.0;0.13366550219159717;0.0597442628357408;0.0035808793820896784;167.0;0.13347823706691628;0.057901162119120345;0.0033632977410296885;168.0;0.13124316982858447;0.05909171423979501;0.0035028845082956707;170.0;0.13361096372912784;0.06421274577431872;0.004136082259810743;168.0;0.14238568623162;0.05289151647590741;0.0028065735406912345;170.0;0.1263095982181996;0.05266665121146559;0.002782784671688987;169.0;0.12652808891624612;0.056763889557354535;0.003232300630201324;161.0;0.12998854205455768;0.06100182129615607;0.003733066970095589;160.0;0.13418629966342444;0.06127877944971091;0.00376707653557587;159.0;0.13497576509922207;0.06429951058906971;0.00414685009849546;164.0;0.13707791263508426;0.06797527379304474;0.004633200835267134;170.0;0.1394649173676431;0.008776440860605736;7.727611622429435e-05;151.0;0.07038585695035247;0.11726565482536619;0.013788965538695819;155.0;0.18902341623385843;0.11748664078318025;0.013842815170308395;156.0;0.1890681593971164;0.11305684255537717;0.012817833774990652;159.0;0.1835000570320422;0.1104727104925385;0.01223595077702385;155.0;0.17626324352671477;0.11297760058292046;0.012799437921577108;146.0;0.1754703856935066;0.11345628619530587;0.01290736666038275;146.0;0.1745233419951249;0.11095864179731937;0.012345999310464584;149.0;0.17191228485881915;0.10403034765713158;0.010850706266256423;153.0;0.17724215393217296;0.10296119997871511;0.010634949255457726;160.0;0.1653030598594061;0.10099002482719556;0.01023098063886127;164.0;0.16418318323325976;0.10113112437174268;0.010258976011547427;164.0;0.16393603794699868;0.10233821086952391;0.010502835546243578;166.0;0.1645987161211179;0.1047406698723526;0.010998899578690963;167.0;0.16569118788566442;0.10937069440631929;0.01199467043106424;164.0;0.16905394712793034;0.10964362151799992;0.012057639959880278;162.0;0.16847617732947104;0.10947083843855505;0.012022425225073486;156.0;0.16913831217657552
0.05725683264344255;0.003287815944594191;156.0;0.1355656860206992;12.0;0.05102487215448616;0.002611886227931667;153.0;0.13123643743274604;0.06385473319083447;0.00406986872110933;138.0;0.13286516121800662;0.053575207362906316;0.002876062208551316;152.0;0.1278054180761573;0.054699386880505185;0.003000257712870431;146.0;0.12691170012639288;0.05275293001403713;0.0027906401497083677;143.0;0.12579583927210852;0.05284610274274153;0.002799891621616347;153.0;0.12592874398454962;0.05474288961130798;0.0030050602300533903;155.0;0.13369125839046797;0.048685010771668126;0.002376200318543483;154.0;0.12163018779038663;0.048251924975517724;0.002333612993697897;156.0;0.12216058554499924;0.051547898544481406;0.0026623293454378217;151.0;0.12419903825621675;0.05495918887112561;0.003025167749432705;152.0;0.12753977799963356;0.055116805099528994;0.0030407812197500664;153.0;0.1295708933292909;0.05687645727351038;0.0032361532135025844;148.0;0.13339691027023862;0.06024573731021036;0.003634560180587177;151.0;0.13675694065939312;0.008898761021128559;7.944948424864536e-05;164.0;0.06883555292208926;0.102368954165488;0.010513615317604773;155.0;0.18045585755130902;0.1034964688434737;0.010746418049297936;158.0;0.1809762794579428;0.10228369744442017;0.010495990204590612;156.0;0.1782659878449234;0.09861642312791907;0.00975698615748588;153.0;0.17264462068424474;0.09787412177607974;0.009610677946711856;151.0;0.16874386923701296;0.09702645370466814;0.009444303423778227;151.0;0.16631091911831494;0.09407028266161722;0.008877691981320624;152.0;0.1631598765992256;0.09392516315571958;0.00885076484800528;143.0;0.17276791752632542;0.08537741061322977;0.007312903415135245;155.0;0.15652594519852267;0.08403182082915507;0.007084102372039779;155.0;0.15565291682653037;0.0842825858397252;0.007126433423079728;156.0;0.1551278651081925;0.08567928391987857;0.007364464946571122;153.0;0.15608940463617782;0.0886735790388093;0.00788834080180017;146.0;0.1579924258605784;0.09450340285989152;0.008959381607520245;140.0;0.1614389095096864;0.09294493222438645;0.008665820348707765;141.0;0.15981171889363177;0.08995218796314784;0.008117063229453757;153.0;0.1588645150408584
0.043692782162946725;0.001914944849092776;145.0;0.12511621378531326;12.0;0.042481884414394155;0.0018105902515310542;144.0;0.12128483075181903;0.04983964098639184;0.00249184969310236;143.0;0.12156751374265119;0.043018717039369075;0.001856638296666544;149.0;0.11874222541340583;0.04349654444614133;0.0018980263799437862;148.0;0.11440386447364169;0.042223354757038756;0.0017885795115306473;150.0;0.1142327500603581;0.04310490129355421;0.001863501593280373;154.0;0.11349292994769813;0.04134549210132127;0.001714792311475522;145.0;0.12234735405018637;0.040864844622723315;0.0016751935999414908;148.0;0.11349481390485189;0.0399852802621328;0.001603453878451657;149.0;0.11392243372151882;0.04180763479945588;0.0017525280116066813;148.0;0.11404312310791719;0.044950616639154325;0.002026286235916275;151.0;0.11678933010251273;0.04631912122776955;0.0021510865907231618;149.0;0.11955287327283222;0.05022505068346846;0.0025293404809498456;142.0;0.12487273264019086;0.05670280781847653;0.0032238160603632643;140.0;0.1294932805768803;0.009659048385095424;9.349394012446369e-05;157.0;0.06850946890634459;0.08774919533557911;0.0077224378455750375;152.0;0.18076144835151725;0.08960251204016065;0.008052169835348861;157.0;0.1826585853979125;0.08758813456224905;0.007695247498596419;156.0;0.1782710890389479;0.07993018384505178;0.006409499787447175;156.0;0.16722575961301575;0.07640735729716523;0.00585696757608327;154.0;0.16097543956419982;0.07385086208392289;0.00547179557372415;152.0;0.1569892973226013;0.06999181825548212;0.004914807731670931;153.0;0.15259779041013108;0.07825699649145648;0.006141735264805723;148.0;0.16997051669592228;0.06424590951407408;0.004140397598787086;156.0;0.14599778712960898;0.0643349215113537;0.004152467716104757;156.0;0.14535073692157177;0.06507466804922374;0.00424854175050046;157.0;0.1448318419908228;0.06779173045378913;0.004610771480959621;155.0;0.14557592836421926;0.0721758851237428;0.0052259594028115555;154.0;0.14811625501865175;0.07971772446618723;0.006375693303460289;156.0;0.15324120194527793;0.07848831665283747;0.006180705442653256;155.0;0.15352953145559636;0.06688231710091874;0.00448703060079284;155.0;0.14564049222187755
0.04527489503519074;0.0020505914840125692;132.0;0.12779351671368916;12.0;0.04527118095731232;0.0020503708685968795;133.0;0.12372694634418727;0.05255437395163494;0.0027698393830337424;133.0;0.12409535208155247;0.04545041055073249;0.002070040128206237;140.0;0.12247157328655446;0.04422138000969803;0.001958204805482068;150.0;0.11949464909833457;0.04316259341830292;0.0018668995614004522;154.0;0.11842947062078152;0.04423751335262901;0.001960137797684508;152.0;0.11864851452448376;0.0435349902076336;0.0018959762022086196;133.0;0.12439120808674912;0.04433118603097042;0.001970117213251644;148.0;0.12024656248470393;0.04348499049234179;0.0018949395246062235;149.0;0.11934123126711806;0.04401785240347113;0.001941989405157975;140.0;0.11907519672461625;0.04537253891880892;0.002063679664885012;141.0;0.12067410735738388;0.045682392399287695;0.0020927230090501047;137.0;0.12135979458155101;0.04790544630786478;0.002302013278206725;140.0;0.12511806950640844;0.05342237078973312;0.00286157040052626;137.0;0.12962705131435334;0.010380996655171115;0.00010810521680347269;152.0;0.06909177804350668;0.0879017797494998;0.007745640743729671;157.0;0.1858108053133059;0.09098155657521306;0.008296250133950793;160.0;0.1875562146480587;0.08630451952157943;0.007462972583804388;162.0;0.181498249082608;0.07765012541184677;0.006034305420941208;170.0;0.16901094777876494;0.07456862956760904;0.005562609804460463;166.0;0.16348499634897873;0.07285557623781523;0.00530884506638835;166.0;0.1600640057750739;0.06999268995493846;0.004900471177333183;164.0;0.15645219139043645;0.07478861459561635;0.005607730598819884;164.0;0.16960440221340753;0.05806785048565322;0.0033691694010394868;166.0;0.14996335785898074;0.057020720794348244;0.003251581191364105;165.0;0.1490362826349689;0.056218441996881356;0.0031597361935827486;164.0;0.1477462636039183;0.0580128138142443;0.0033668587847050014;163.0;0.14746143071256562;0.06221926404585063;0.0038760717949580413;162.0;0.149258128724293;0.06981122519350748;0.004881734901539572;168.0;0.1549089318184194;0.06963282582718687;0.0048549272148208;170.0;0.1573278080633404;0.06007456617780182;0.003603240596326327;160.0;0.14826954582494228
0.041342069466300126;0.0017141324131089229;157.0;0.12388327752387993;12.0;0.040494076680327944;0.0016441211422760999;153.0;0.12070667072951115;0.04585173241286116;0.002106516587263757;146.0;0.12012287715165226;0.040286747751146434;0.0016271511950362123;157.0;0.11903680017769715;0.03929866941974367;0.0015482949358648428;167.0;0.11850507095449674;0.038643543812219;0.0014967291784893672;165.0;0.11676503464885764;0.03908661785798186;0.0015318725407412737;166.0;0.11754344636865552;0.041028292003419974;0.001688612791801666;163.0;0.1231295073215674;0.03949626380157073;0.0015642941481020516;155.0;0.11699335282415156;0.03910849571941469;0.0015340311194496996;162.0;0.11595187188481985;0.040516380714823955;0.0016464329310980877;161.0;0.11622636681020956;0.041820792672689504;0.0017541925094025947;157.0;0.11777288030837092;0.04131327599295579;0.0017109769693816547;151.0;0.11750195449602513;0.041967822977976674;0.0017646665889360826;158.0;0.12024326975525776;0.0463581915368183;0.0021525535302347647;152.0;0.12387754122166154;0.010250715306610892;0.00010539779280992407;150.0;0.0699190638564815;0.09116123769494686;0.008333176221728921;147.0;0.17745134524610506;0.09214083751861576;0.008512703089347155;155.0;0.1769207129958819;0.09090712817809571;0.008284108418534893;158.0;0.17184043772950605;0.09000216725818742;0.008112911333997755;158.0;0.16372119473925056;0.09183761505415806;0.008444721579400825;163.0;0.16083972752616518;0.09228664852483687;0.008527952421703957;165.0;0.1583153719459625;0.0914206119576679;0.008367559583046863;160.0;0.15598616089439735;0.08445369408341474;0.0071475279427700425;160.0;0.1631063884083328;0.07488046746621625;0.005616569994469713;160.0;0.1505589425945227;0.07314822577775475;0.00535771532748963;156.0;0.14943262955625633;0.07134395853259733;0.0050958210230428345;152.0;0.14767058402540262;0.07276528731602205;0.005301516224472571;146.0;0.14756782704271118;0.07664149077423882;0.005880340032048553;141.0;0.15028282193862091;0.08391481172474748;0.0070458723455192555;140.0;0.15599548158686283;0.08190902956982521;0.006716431052770093;147.0;0.15579191289332445;0.07780344467955676;0.006062685364842813;158.0;0.14912859586706978
0.030253183793965688;0.0009141726623876924;172.0;0.10112493968789582;12.0;0.029232600132151444;0.0008544773072530614;169.0;0.10197820621656363;0.03092007681075225;0.0009581948328156223;169.0;0.10161131023316851;0.028535760976715497;0.0008154008847662771;169.0;0.10023289753667564;0.02886843354114633;0.0008343334831766631;171.0;0.09763148130686396;0.028712801179808907;0.0008257779937360868;162.0;0.0967367320721144;0.031802666280800355;0.001014089659303003;175.0;0.09792083574483246;0.030616622262189523;0.0009363675525472401;170.0;0.10262859508573624;0.028963937281139367;0.0008415598094756912;159.0;0.09641379185488709;0.028795219962589907;0.0008317196560318235;162.0;0.09701962916257753;0.030227190758709513;0.0009163117741341446;158.0;0.09725218722930555;0.03223484928660953;0.0010421535527159506;162.0;0.09789300375137464;0.03261130202850992;0.0010666454201469296;157.0;0.09802428925744994;0.03464934690425146;0.0012042189013547777;155.0;0.10104430826304259;0.03856841734244848;0.001491149664535448;153.0;0.10232568995104026;0.010126037147888605;0.00010282536355013706;154.0;0.07097383834418501;0.08184713834428749;0.006703552657753143;133.0;0.14969474936286697;0.08172910424823282;0.006676917820461086;137.0;0.14843669861614375;0.08304024382309534;0.006888998041037834;136.0;0.14612637416804178;0.08590576841516477;0.007361696858992265;135.0;0.14349571312766957;0.08895490254301323;0.007893682439259997;144.0;0.1427278580725964;0.0903551538495309;0.008144461916617461;145.0;0.14173904746916086;0.08899723253214392;0.007904708177365414;145.0;0.1395584549288724;0.08148975169783827;0.006647459107694567;141.0;0.14610288659891507;0.07688027274542206;0.00590306476025218;151.0;0.13291130326376355;0.07528572519793128;0.005661584411419635;146.0;0.13199936750699098;0.07324006607402715;0.005358958015598725;140.0;0.13124679971261896;0.07475651654261557;0.005587621909901262;134.0;0.1321949597747668;0.07798800199406543;0.006084401347267707;137.0;0.13598168017882892;0.0846711927257138;0.007181766378019469;138.0;0.1414634520945442;0.08259618438462792;0.006832620005288276;138.0;0.1394581471813341;0.08166119776326657;0.006657355120398318;150.0;0.1326803149384046
0.08262596346498065;0.006830577771436863;165.0;0.12916117932234147;12.0;0.2460931444230494;0.060755280435538635;164.0;0.18327119989831878;0.07416331845427677;0.005511620008260618;164.0;0.1329018503888183;0.07639825575533492;0.005835450200254778;155.0;0.12279719784338548;0.08724492772920323;0.007609941597803116;152.0;0.12255779738974702;0.08533493440459916;0.007282811189687437;149.0;0.12060602288311333;0.08263623083671053;0.006835539449680738;156.0;0.12061269257379258;0.08059908869708345;0.0065044427304570655;156.0;0.1288515434231747;0.07924824163885405;0.006284441871214079;155.0;0.1177598099000731;0.07828701487209963;0.006135704095209977;155.0;0.11829269859092714;0.07988470523251243;0.006388620532586336;146.0;0.1184516201522916;0.08200368369494851;0.006732968911651727;154.0;0.11887080775427013;0.08188213571317586;0.006712443449331462;151.0;0.12043474868108088;0.08458874770229022;0.007163324589426836;142.0;0.12409630877819704;0.09006826812164255;0.008124359440817384;145.0;0.12567635392934814;0.009996417531913371;0.00010020805721356787;157.0;0.07091024112230745;0.1069845344619729;0.011471778365861662;155.0;0.16231162895469137;0.10720770252760253;0.011520530472258856;153.0;0.16246781943927263;0.10147967232566547;0.010320735068359196;143.0;0.15690762891052001;0.096665299089621;0.009365000748993659;147.0;0.14916961504678503;0.0983120494312149;0.009685272817041388;156.0;0.14731087032510487;0.09929916404026336;0.009883291786115748;161.0;0.14583628470944224;0.09474689916552889;0.008999055769499185;162.0;0.1425039770148447;0.08489190213825137;0.007216038873498204;159.0;0.15243050583191728;0.08406699605169572;0.00708685056874396;170.0;0.13530373425374723;0.07922749145054195;0.006293631855141493;169.0;0.13297062038943125;0.07420814485482058;0.005518289633855651;162.0;0.1318069484619063;0.07451929113439383;0.0055594879864220665;160.0;0.1332393041031386;0.08134345513366839;0.006612855228598171;162.0;0.1387521819552362;0.09267285961635437;0.008571073848089033;165.0;0.14613995043538563;0.08485748397944004;0.007196224842475716;167.0;0.14416085568490647;0.09401444450459219;0.008863696720025894;169.0;0.13794966921316593
0.12535585677631292;0.015725916697657383;152.0;0.17357499117085723;12.0;0.30999114203019434;0.09637647067812861;157.0;0.21765313212245488;0.1048381036041409;0.011025429903467438;153.0;0.16969995909442115;0.11464435099690891;0.01316911413802943;140.0;0.1607023597554951;0.12814203700532614;0.016449293588966536;131.0;0.16207052339406303;0.1264970885293574;0.0160355689624598;138.0;0.15971300783794268;0.12188745829020478;0.014888178173050307;134.0;0.1579990334513759;0.1195537723910519;0.014312260656694383;147.0;0.17118711102066514;0.128561534578246;0.016569443330139284;140.0;0.1587414916502825;0.13836523302806292;0.019192881444249146;147.0;0.16163988976724672;0.1613853608553416;0.02611856652313665;149.0;0.16763562400578644;0.17804462836074442;0.03179080139395645;150.0;0.17328122209738983;0.17143624579512187;0.029467651665810383;145.0;0.17322480010596616;0.16245095662888542;0.02645520980298739;140.0;0.17324492466865538;0.14833637903471378;0.022053165994418016;140.0;0.1706642259745895;0.009324153978830692;8.722236899979212e-05;148.0;0.06986883037645455;0.12830036532340877;0.01650930027039152;162.0;0.19010132036604455;0.12943122034806018;0.0167975165390043;160.0;0.19296780047596504;0.12535567572032472;0.015754959093879056;149.0;0.18551262777454053;0.12204363103308459;0.014926389457160103;154.0;0.17531427439005856;0.12488824891429842;0.015622589586592966;160.0;0.17390191825400664;0.12478374729886908;0.01558956876566487;167.0;0.1722740394160515;0.11994141173299668;0.01441454359052277;166.0;0.1692819579361541;0.10593810888158464;0.0112563859789007;162.0;0.175256878419125;0.10436465589194874;0.010900020504823553;177.0;0.16140301549552688;0.1003063699596163;0.010069162224515519;175.0;0.1587265305689945;0.09933113676836389;0.009873680380037242;170.0;0.15764733915001342;0.10482776644904407;0.011002295081464272;169.0;0.15986296976079925;0.11821385605381503;0.013993809250299447;170.0;0.1658218574618775;0.13286293147646133;0.01768645728793804;169.0;0.17304167591816802;0.12096854153853871;0.014647160835236308;177.0;0.1692479227370855;0.11427913082074742;0.013064275168927815;178.0;0.16334138380374888
0.12362985550626464;0.015291996843479452;153.0;0.17847068069836217;12.0;0.21707347625143592;0.047272295231231255;164.0;0.17601782018170145;0.10860123599982349;0.011816482841588908;171.0;0.1625771370663894;0.11226502436419113;0.012584746442421581;155.0;0.16021935665773238;0.11626109864507038;0.013498666917396747;151.0;0.15796028392694686;0.11489541099209397;0.013183156201102787;154.0;0.15606713564191085;0.11253269725207157;0.012657786557404157;149.0;0.15515860207221108;0.11837302399328138;0.014029103688732144;145.0;0.1785324034651854;0.1219419669166994;0.014881759562069852;145.0;0.15801793042326068;0.13420123186266192;0.018048763510884483;152.0;0.16099019526106825;0.16060766069229082;0.025860482994561625;158.0;0.16783467621197865;0.1787454740371928;0.03204093368148417;159.0;0.17383757350119086;0.17017986228650595;0.029043488286103324;157.0;0.17158338944429594;0.15767745674802716;0.02492558612703039;158.0;0.16966903792684895;0.1374325609450223;0.018922159021170847;155.0;0.16618212566577562;0.009242523656692942;8.565904498907917e-05;154.0;0.07162724735047402;0.11160495699273962;0.012496490097978943;167.0;0.18797461907630159;0.11417874037677336;0.013079363021355195;164.0;0.19141283748727125;0.11211600910322095;0.012611060430949353;158.0;0.18601936890133522;0.10983457904419856;0.012102432055867963;159.0;0.17765560480356882;0.11208321815907249;0.012603768176190825;154.0;0.17642519854891095;0.11072139454572846;0.012297785125422176;160.0;0.17552658045338765;0.10639423211825894;0.011356647205270857;160.0;0.1723243098956464;0.10078833438150653;0.010191604310590753;164.0;0.17657482677744546;0.09237362987430699;0.008560305550807678;167.0;0.16649683726071116;0.09052421621849831;0.008221182980147254;161.0;0.16485071957844918;0.09241873949431792;0.008569090089778507;158.0;0.16381115580810857;0.09836927787859163;0.009705729043786653;158.0;0.16434915458210092;0.10976288936891446;0.012076705883947969;157.0;0.16733790273551402;0.12233862497972524;0.014983959726026282;153.0;0.17334550301975196;0.116004000319669;0.013486910894497382;155.0;0.1724263336972479;0.09948478527313556;0.009928196232807142;165.0;0.1670952682257256
0.10941967346430047;0.011992367991355724;153.0;0.16500802328573708;12.0;0.12578208668151486;0.0158415310707194;172.0;0.15686874004691045;0.10087430251860663;0.010208802527713976;171.0;0.14820585638160494;0.0984368251925706;0.009715253307345737;166.0;0.14618551244341985;0.09210827593641169;0.00850561558057403;171.0;0.14260587357279403;0.08940817897500375;0.008016620249915753;168.0;0.1397503912739523;0.08920952881975308;0.007979661801273885;166.0;0.13974467141660382;0.10703483552998687;0.011481814222960202;153.0;0.16651405720651738;0.08863765977484184;0.007879667142824526;156.0;0.13760232377866918;0.09168256128651009;0.008431275883775848;158.0;0.1379406395807312;0.1009547904004777;0.010222612153258946;156.0;0.1401283548907868;0.1067207179035816;0.011423326999216232;157.0;0.14207291277472434;0.10153001369210427;0.010337951849066713;156.0;0.1416919351854441;0.09710798807518112;0.009453973692649836;159.0;0.14271384790541808;0.0936061846304297;0.008782087178484096;161.0;0.14415227455693022;0.00914109047048425;8.378071945537272e-05;159.0;0.06962771663724453;0.10702478390288972;0.011491272558229298;163.0;0.1801685961113929;0.10893804871149684;0.011904749875661617;160.0;0.1811265298870104;0.10486512495551269;0.011031196626353842;157.0;0.17709972107025668;0.09975211691333154;0.00998036375473119;158.0;0.1695297624937013;0.10228950486347817;0.010489672970728637;149.0;0.1675063303087747;0.10072713722597433;0.010172426131612755;151.0;0.16706868990918458;0.09460477695182655;0.008976261663871896;155.0;0.16419071650268283;0.09168492539600184;0.008433631784815048;165.0;0.16868632984144338;0.08423903315770577;0.007115126582961482;157.0;0.16396398331761014;0.08193687506627369;0.0067325683981441274;152.0;0.16249378818435306;0.08177212692163907;0.006706698981585513;152.0;0.16103560774190295;0.08502758169372956;0.00725271950106216;158.0;0.16018169231198812;0.09442370677695298;0.008944418775100313;158.0;0.16235740413774347;0.10795633080364267;0.011692548150600689;160.0;0.16782241354036967;0.10760965295317483;0.01161758785238264;157.0;0.16900898692771707;0.08995445816850868;0.008110772198920244;147.0;0.1639511530732515
0.08639683098391901;0.007482046240915994;150.0;0.1519100717961353;12.0;0.0755055430179739;0.005719269361716493;162.0;0.14439624447769128;0.07484510151764394;0.005613942086926425;154.0;0.14040968401274295;0.07689598301761168;0.0059157285031543804;157.0;0.13850490191247997;0.07264546220690811;0.005278593894948493;159.0;0.13599099056672917;0.07099060530244469;0.00503953855572507;161.0;0.1335871641000475;0.07079825951392285;0.005016476838332527;172.0;0.13313045207129862;0.08495037061323017;0.007235880737710792;160.0;0.15427079861094103;0.06867052597234143;0.004724730415190102;170.0;0.12981393073571867;0.06967306560853374;0.004867488252470771;169.0;0.13050574545330562;0.07492770041924725;0.005632354384992236;162.0;0.1337122668737695;0.07810085760151611;0.006119401145493272;161.0;0.13559396156382375;0.0758530899922111;0.0057724691867985884;157.0;0.1367915845945297;0.07379137824707166;0.005461290041450379;152.0;0.13693160612576133;0.07307560525007994;0.005352017003749489;154.0;0.13909914926984498;0.009266531823054097;8.611542363861327e-05;160.0;0.0682931243149019;0.10526502262821245;0.011111671200452115;143.0;0.17820397874037144;0.10847295192198389;0.0117995744142657;145.0;0.1830107653642069;0.10578012339372356;0.011219872289890735;143.0;0.17937545961142218;0.10091964650328285;0.010215125971850631;147.0;0.1678353790348256;0.10374361023755739;0.010795301576939196;143.0;0.1633527221951511;0.10240807627692174;0.010520523385057788;145.0;0.1605243353257801;0.09629204567657756;0.00930235670891301;146.0;0.15588056094774716;0.08867619140481747;0.00788619965705641;142.0;0.16447678858566744;0.0861532901088393;0.007445698667560028;148.0;0.15314615841834597;0.08318603163771321;0.006941394936810956;147.0;0.15204330878773462;0.08252233236883416;0.006830412346085802;150.0;0.1512917318449557;0.08490415705491751;0.007230827593269119;159.0;0.15090632676480234;0.0918986075515094;0.008470447665128139;156.0;0.15201516016095126;0.10273083146126685;0.010586503772741424;153.0;0.15478796194681393;0.10175750597753745;0.010387890600143211;152.0;0.15560224722684785;0.09083584847134918;0.008277430555304307;136.0;0.15337563011684335
0.06034105712703098;0.003652991182652889;151.0;0.14675357407805506;12.0;0.05552441470662377;0.003090820799540332;154.0;0.13980634407766496;0.05263690560672704;0.0027797283908037444;157.0;0.13722227352737093;0.05166268170395447;0.0026775796672523916;155.0;0.13438814935062365;0.05135535897482792;0.002645737353993884;153.0;0.13163051007569515;0.050090080166894695;0.002516843321771126;151.0;0.13012549819774094;0.049105055529432166;0.002419045379867213;164.0;0.12772796817021564;0.061958627278089824;0.0038513223674801924;154.0;0.15147442810943135;0.04764220741823451;0.002277176739978644;161.0;0.12686690808130888;0.04674369354197046;0.002192116808501002;157.0;0.12765512228236175;0.048867010658786396;0.002395462655056092;159.0;0.13083496213491583;0.05089763311909285;0.0025977866163918455;157.0;0.1333076191334616;0.050994518100578735;0.002608391249549949;162.0;0.13408413657276658;0.05073961224919441;0.0025825390957106365;161.0;0.13330255577016312;0.05087239139603724;0.0025960881331786733;160.0;0.13504777785489544;0.00864386935694694;7.495284212971627e-05;152.0;0.06772001372281235;0.09747251686935783;0.00952885021646867;158.0;0.17811300698607344;0.09857623343940823;0.009743872897698349;168.0;0.18353954506234774;0.0932792756076986;0.00872523997727011;166.0;0.1788941130610508;0.08527002389884922;0.0072899411776428565;163.0;0.16736456274922704;0.08511866912078318;0.007265732553543488;160.0;0.16357385714519393;0.0829867778023917;0.006905426110506052;165.0;0.15981945462947694;0.0772400886759744;0.005982790385244033;160.0;0.15485657836131927;0.08198048621023545;0.006739458200804587;155.0;0.16569346280771619;0.07281748891201932;0.005319148807837981;166.0;0.15083748003030628;0.07007252433163215;0.004926180873492434;166.0;0.14839016165149785;0.06946905785551798;0.00484177797201641;169.0;0.14632719044514556;0.0708960933089965;0.005042698173610612;175.0;0.14762262492302064;0.07536864599200821;0.005698874216869721;166.0;0.1503789056961197;0.0859142793113377;0.007402944503099349;155.0;0.15684448929364864;0.08651188676973036;0.007507769967166027;158.0;0.15700615335202486;0.07665910208342983;0.005895673215257159;161.0;0.15290804913807474
0.05561131002557299;0.003101306306021373;157.0;0.1433307040458635;12.0;0.04854969592577925;0.0023641155452469877;158.0;0.1371439101207174;0.0485765226980921;0.0023671759058347744;163.0;0.13534463506167405;0.048569033142943495;0.002366631855896822;162.0;0.13198500442720346;0.04822156707211115;0.002332847894261284;153.0;0.13042192228364732;0.0470753511281355;0.0022232649832301323;147.0;0.1288098860962699;0.04631648799662606;0.002152015631540982;153.0;0.12751442969132837;0.05713199464369111;0.0032726678132652563;152.0;0.14485933759215677;0.046521534581603484;0.002170807890793615;148.0;0.12497818541557772;0.044555815592827765;0.001990450775536568;142.0;0.12513440034000345;0.04457606768106632;0.0019915852905306626;149.0;0.12704184838027185;0.046114080384218464;0.00212987567167145;147.0;0.12816867838532583;0.044322363582647344;0.0019690387871577667;154.0;0.12822068218418362;0.045459562712795484;0.002072666263940193;160.0;0.12836842990086395;0.04908374303786304;0.002416360515132495;162.0;0.13007276420879477;0.008890376377334946;7.926916306687123e-05;153.0;0.0668315511736164;0.10431000569637189;0.010915427951810544;152.0;0.1927200928453225;0.11041037453833892;0.012230198657807223;158.0;0.19675622916044025;0.10693482300754642;0.011472446992153707;162.0;0.19146322326533224;0.10079924925181497;0.01019347634120672;167.0;0.18092161805740603;0.10522919744874187;0.011108905593632349;167.0;0.17743532945028212;0.10296444275598643;0.010635724366029907;171.0;0.17379771874685893;0.09064700234885605;0.00824328562610189;159.0;0.17257393687999034;0.08720700470436332;0.007629941591600359;152.0;0.1767729881642713;0.0880754182095792;0.007781447724078574;163.0;0.16863283230499215;0.08225767755008108;0.006787742807126403;166.0;0.16370420630752955;0.07812339832010648;0.006122105106294085;163.0;0.160128712062941;0.0795762514946621;0.006351753139341971;163.0;0.16024695747010742;0.08557175889498755;0.007344151743622434;157.0;0.16375767004414085;0.09691848852668684;0.009422246098859794;157.0;0.17066214744987485;0.09954162057300288;0.009939607189950817;162.0;0.17236568960250173;0.09706222150424786;0.009451421095008895;164.0;0.1722120712724952
0.05039863957216717;0.002548006470041824;152.0;0.13447935286474302;12.0;0.047875198429651836;0.00229915304309457;149.0;0.1300814541283628;0.04798865498143169;0.002309618506032843;155.0;0.12866204330710265;0.04903343350038416;0.0024104701721970444;154.0;0.12773067614049752;0.04942997432355026;0.002449056012633403;146.0;0.1261822818296688;0.047912285620809826;0.0023016962142692666;147.0;0.12444738408240567;0.048906311427765324;0.002398901709268267;151.0;0.12703278616797153;0.05063943409940478;0.0025727287287561186;150.0;0.134992143528064;0.04732294468547004;0.0022463038359504745;148.0;0.12375311215102291;0.04466214266986352;0.0020012155211326394;147.0;0.12304143958158882;0.04358920856079297;0.0019060838701323935;153.0;0.12423199573774825;0.04386881641932;0.0019305779339258144;152.0;0.1252367924418442;0.04190161537070973;0.001761326497174776;148.0;0.12572852996245468;0.043388330813374315;0.001888644935811728;147.0;0.1263225538912447;0.04776941570158921;0.002289371800656362;149.0;0.1277415554446461;0.010471685220730196;0.00010999282512504777;155.0;0.07092890008016793;0.10774480656296649;0.011646716580687654;155.0;0.19924081588710982;0.11555808869654369;0.013397517390107678;155.0;0.2057596654428134;0.1104151350967334;0.012231405441641047;157.0;0.19675250135983227;0.10285874290611566;0.010612839057062317;156.0;0.17666186039996942;0.10837894660551183;0.01178249446251961;162.0;0.16831255786710125;0.10736221529348068;0.011561850069601065;161.0;0.1656549829324946;0.09484151695013428;0.009020772934480248;150.0;0.1644301085665885;0.08712307844902144;0.007614633551642705;145.0;0.17630168120026524;0.08962665235118598;0.008059225740586023;144.0;0.1608905174114209;0.08283672690267467;0.006884443476823241;148.0;0.15684690362845516;0.07744690441755647;0.006017700674230946;145.0;0.15427237452838866;0.07766515240781609;0.006051509500598121;145.0;0.15308864722332702;0.08196171143697004;0.00673910736416203;148.0;0.15497470694304208;0.09069301595293498;0.008249810495283415;146.0;0.15928544169363837;0.09195409785821922;0.008480355752337273;148.0;0.16393893049955824;0.09834261521382447;0.009702983004761747;145.0;0.1626479303805474
0.05512841101966379;0.0030473146051653533;152.0;0.1425600902630478;12.0;0.05447473905392871;0.0029752329680401124;148.0;0.13831966174778768;0.054723613105605626;0.0030020584950674325;156.0;0.13719423196503355;0.05376293541935956;0.0028993601406122676;151.0;0.13538501619510007;0.05453536739145185;0.00298312801518269;149.0;0.13295944342265362;0.051699751339696946;0.0026809023070414315;151.0;0.13061855357799573;0.05126738352573281;0.0026354797697086753;160.0;0.131444076738045;0.05318836069402878;0.002837425114156742;150.0;0.14240603327495183;0.049192801944251636;0.002427137378558492;148.0;0.1271014104245911;0.048312594711564724;0.002340533794759947;153.0;0.12628744670307598;0.04847891522635986;0.0023554018238861204;153.0;0.12662970690265507;0.049706705590930274;0.0024770690277575677;154.0;0.12862079303889754;0.04839157431941291;0.0023480873326590084;156.0;0.12873799066796995;0.05030023961786733;0.0025373414533181545;153.0;0.1302856982111159;0.05090951310904257;0.002599896584501749;155.0;0.13012816747919415;0.010512437241012773;0.00011087146363475631;150.0;0.06996146157913077;0.09256543137820405;0.008569715176993273;179.0;0.1753617881893322;0.09592189207128168;0.009203290567001645;170.0;0.17974643492725223;0.08906911457006887;0.00793097533556704;170.0;0.17062784281538462;0.08311685248094781;0.006903057101114073;155.0;0.15511959621698024;0.08880535702658825;0.007869326893360378;157.0;0.15057223895656652;0.08921327242006952;0.007943449892608844;154.0;0.15046131980531824;0.08083504876985712;0.006530162257346352;154.0;0.14798497192573187;0.07459529898069973;0.005565030271684072;166.0;0.15804446537198305;0.06975480908631884;0.004877791650370354;153.0;0.14369108719315685;0.06655715303718887;0.004440588808212144;157.0;0.14147877249573546;0.06597475517735449;0.004363282415153391;159.0;0.141020631531296;0.06817465811467636;0.004659133230014667;165.0;0.14104005737569486;0.07445368486352602;0.005558518393177608;165.0;0.14396574315707975;0.08713462999412207;0.007614375878695568;154.0;0.15034196096627492;0.08837061525637023;0.007832724823544843;151.0;0.1550986572049034;0.07554578014395433;0.005720386794888728;149.0;0.1434178753680191
0.07223391289197217;0.005229068220850677;156.0;0.1597358469680699;12.0;0.3697588537640641;0.1369349265399362;165.0;0.22217720484041656;0.1339620657618237;0.017969778699289646;168.0;0.16618530073836893;0.06498847523011045;0.004229632393822398;156.0;0.1443617217317298;0.0585345549619832;0.003432252275912881;151.0;0.13894012921362842;0.05552876399923197;0.0030888810079961835;153.0;0.13646350880343328;0.05198653593280967;0.002708868182488491;161.0;0.1365931982485344;0.06705004708975225;0.004507655280155307;151.0;0.15813129444971963;0.05227650218350349;0.0027371654524302037;157.0;0.13100508052784976;0.05354073115907554;0.0028717240464207674;155.0;0.1311511608827583;0.056421384068560454;0.003189026129695766;148.0;0.13278061071183234;0.05880765182760757;0.00346520087667638;150.0;0.1341704569555985;0.057068772240547364;0.0032632132934356877;155.0;0.13341430387133724;0.05776964634271922;0.003342972726176229;160.0;0.13504506779590145;0.05861085093540379;0.003440577819594989;162.0;0.13711347476264651;0.010104746322378625;0.00010243850065976955;161.0;0.06861322007190736;0.09327610548835895;0.008728265510546574;157.0;0.17790283993194447;0.09960218842606329;0.00995210753009721;147.0;0.18235578519730297;0.09494052307609795;0.00904253283062301;154.0;0.1742779973672712;0.08938336653562906;0.008015232460023464;150.0;0.16269209569224052;0.09287208772452905;0.008653221101294453;151.0;0.15868126910917044;0.09266473090706297;0.008614725437509914;146.0;0.15621530898559086;0.08527682968716754;0.0072957998430662275;150.0;0.15361780469800265;0.0805528866495539;0.006509898654993668;161.0;0.16001977498117934;0.07288278923542649;0.005329352258101757;150.0;0.14860988505188852;0.07001046103840043;0.004917192819997895;154.0;0.14686332263343918;0.06824090171637014;0.004671495556218019;157.0;0.1464375031738164;0.068730195580345;0.0047382047774993516;162.0;0.1463558186816566;0.07169807489498539;0.005156061642110628;160.0;0.14760644871324363;0.08017645753022487;0.006446420310894736;152.0;0.15214829789598477;0.08272734305774745;0.006860710591435674;148.0;0.1541606745561058;0.0788799037290654;0.006242460415832118;147.0;0.1487195302914397
0.0914705116883517;0.008394264583281338;149.0;0.16391094495979946;12.0;0.40030084409404537;0.16075202856773452;163.0;0.22422432746268506;0.14785282307299905;0.02192604521759493;171.0;0.1642936909451819;0.07631818675585252;0.005843105436459372;155.0;0.14256872816479693;0.06758993711307422;0.004582424956702422;149.0;0.135308397408407;0.06505027617215513;0.004244632564669424;150.0;0.1341934779354801;0.06167895565264321;0.0038152773951214726;149.0;0.1349148601979916;0.08824840750677135;0.00781326741597537;148.0;0.1650100439157899;0.0613802041792869;0.0037793369734725577;157.0;0.1320334005401263;0.061580598165887054;0.003803270592695855;149.0;0.13257729949680963;0.06296259777640154;0.0039724803013749385;143.0;0.1334450389878885;0.06384874466217723;0.004084094504505121;142.0;0.1338855802048178;0.06326273218585964;0.004011144842558313;140.0;0.13506520151273138;0.06436868889001274;0.004153008879228446;146.0;0.13733537814762142;0.06684786885477452;0.004481220011771302;148.0;0.14093767195439758;0.009829393075673348;9.693148228286158e-05;154.0;0.07014179005699091;0.13624879562519074;0.018623895430036678;138.0;0.21449999851716395;0.14368058268987294;0.0207116134011223;138.0;0.2216627757896129;0.13469309440450236;0.018201265441897;140.0;0.21174181496780842;0.11825897863945997;0.014028371760809275;138.0;0.1926286249271136;0.1127342650670698;0.012746917292335277;142.0;0.18326340725381413;0.11071836637931028;0.012295838193520186;137.0;0.17955904859750982;0.10710968637809498;0.011507729261273974;140.0;0.17674876965180694;0.10927310864649555;0.011979740609259335;138.0;0.18864647457804673;0.09761942813839823;0.00956018675176564;140.0;0.17130694705700675;0.09481648237831458;0.009019170922651424;141.0;0.16975286505138718;0.09208602746585014;0.008507481598170306;145.0;0.1681909400415821;0.09129024040318329;0.008361257968693506;144.0;0.16810836457977976;0.09145663249490307;0.008391760989131214;144.0;0.16796378242372062;0.09333760850651321;0.008740141274973842;143.0;0.1697509792307777;0.09272423427039105;0.008625795162896872;144.0;0.1697587249089677;0.10221133085590307;0.010480213267656307;137.0;0.1711685600148144
0.07902731837724421;0.006264903823138889;154.0;0.14957760121133187;12.0;0.17223312804216284;0.029630610648011115;156.0;0.1451522066588036;0.08612730269330388;0.00743011126290085;165.0;0.13576434884104902;0.06704759560426735;0.0045100698810501445;153.0;0.13300408101631397;0.06405000387663651;0.004115741473396111;151.0;0.13005173652338597;0.06267164835509798;0.003940601673834647;148.0;0.12976095632612478;0.06136641717167984;0.0037781635050055575;147.0;0.12998552896896814;0.07852664337762136;0.00618638371770452;152.0;0.15242472266477952;0.061259397635704274;0.0037648061436031197;153.0;0.12956727510019742;0.06028588695797682;0.0036460136658343642;148.0;0.12999187647217272;0.059102598456726725;0.0035040207135276042;152.0;0.12828334274879225;0.05891254961378444;0.0034816477559254113;150.0;0.12773436689189546;0.058747377554959325;0.0034623210460899634;150.0;0.12974299808567705;0.06041038679327009;0.0036606011204386706;152.0;0.13245751705461264;0.0631575884178246;0.004000745358869395;151.0;0.13520268905188093;0.009513872468049436;9.078697957840939e-05;144.0;0.07030899602517283;0.15018390316822183;0.022628783876675624;149.0;0.21449675301723395;0.15759725834941563;0.0249170081969448;148.0;0.22010048313116382;0.14852030507434266;0.02213023156590958;141.0;0.2118629402301822;0.13321663424928276;0.017804288981584142;139.0;0.1955008061562553;0.1275180029568094;0.01631343847090421;140.0;0.1879465486072877;0.12494573402629883;0.015661490263987145;139.0;0.1850751866760762;0.12193087853300533;0.014913754317768074;141.0;0.18263036887753142;0.11917391321151574;0.01424849655203429;138.0;0.19143179410659336;0.11403443584952064;0.013045385832829853;147.0;0.17800612368490368;0.11065984400476626;0.012283735203783803;145.0;0.17641445611576823;0.10900167286944755;0.011917929704317442;147.0;0.1742873288107447;0.1105840737671618;0.012266881213698322;142.0;0.17414672751844534;0.11422777343015975;0.013088486129582423;136.0;0.17522585168183788;0.12029981462963879;0.014517375735540159;138.0;0.17737160751363196;0.11798386079241967;0.0139645875788737;142.0;0.17692542598064706;0.12063903771623975;0.014600199649177173;144.0;0.17850178189017638
0.05159887611511443;0.0026709515501841656;155.0;0.1386557111568369;12.0;0.07798158516512735;0.006093987081782127;157.0;0.1322235486382037;0.052313408514412074;0.0027443400101835242;154.0;0.12659867315705323;0.04661858598987022;0.0021803773081212675;142.0;0.12261422205862073;0.0460130746611953;0.0021241222891986286;149.0;0.12201032856766948;0.04505926497731097;0.0020369701403637687;144.0;0.1199257028728829;0.045908663547726034;0.0021144638569849383;147.0;0.12153853154277999;0.050539394527951954;0.0025623112157782913;154.0;0.1391950380380237;0.04560487329748096;0.0020865076171426647;152.0;0.11887278713385557;0.04463322935384883;0.0019981052432130096;151.0;0.11947880356818788;0.0440357216558303;0.0019443166821798681;150.0;0.11798548069896561;0.04482225236648754;0.0020145043059956983;151.0;0.11798704713141626;0.04420028599174877;0.001958392200720492;157.0;0.1192203648974911;0.045616788624806406;0.0020857156665438285;159.0;0.122300713304399;0.04801884521011292;0.002311788918998627;159.0;0.12488607308881595;0.00923539337070933;8.55718539086576e-05;153.0;0.06957402595600236;0.13201276665255407;0.017479612872120767;151.0;0.19758659540976992;0.13654995946553738;0.018699091085335042;153.0;0.20136894783606132;0.1261285969557292;0.015953567558098684;152.0;0.19072092506637486;0.11242722953752646;0.0126774431008647;144.0;0.17301112068467941;0.10781195132923659;0.011659016336562076;142.0;0.16686779810704808;0.10547333763433303;0.011157327033725887;142.0;0.16554315921438348;0.10250664351011606;0.01053748597027791;137.0;0.1633296282360536;0.1018794749811285;0.010410027571275333;141.0;0.17251373876243606;0.09607865168702871;0.009260130855004226;150.0;0.1587027750324515;0.09276068044954258;0.008630844885818667;148.0;0.1564530820263176;0.09219970276694116;0.008526964031632991;148.0;0.15504855570045414;0.0956599332784327;0.009178413795052845;146.0;0.1552256904424789;0.1019268518485394;0.010421270355173576;138.0;0.1570964286581868;0.11060748581295986;0.012271505839795846;139.0;0.15979290574548133;0.1071406307342231;0.011514175854366933;142.0;0.16050425800871546;0.10398403754873091;0.010845088038784057;151.0;0.16047246507235788
0.050639926963623245;0.0025727686113541383;159.0;0.1372400209092094;12.0;0.04982781574196759;0.0024891663773378594;152.0;0.1280790537153705;0.04298344759372566;0.001853588024331001;151.0;0.1239563884412209;0.040316357482488116;0.0016303363480940974;145.0;0.1186753980130634;0.0390549429957453;0.0015302853905838295;150.0;0.11685549670075421;0.03816498386587176;0.001461329382560663;149.0;0.11480570590519022;0.03836925507327318;0.001477011990317489;149.0;0.11667409954587574;0.04980156596868548;0.0024882923583732564;161.0;0.13582248351038004;0.0383996924180592;0.0014793573815688906;151.0;0.1130490742825522;0.03796426666048204;0.001445997829847504;155.0;0.11267433478772296;0.0390084815380925;0.001526481280409313;156.0;0.1129839580052564;0.0412605866353715;0.0017077589511408106;154.0;0.11436890677930589;0.03994954942252804;0.0016011265897306378;164.0;0.11428376975319424;0.04128663249619268;0.0017101492692921923;163.0;0.11682885486418512;0.04362619564564347;0.0019093283804271308;167.0;0.11963267248099914;0.009707270759945564;9.452497885926447e-05;160.0;0.06895843894106896;0.11616258370556969;0.013533925031297168;159.0;0.19313230696944259;0.11860851115074685;0.014109777063117541;165.0;0.19711833192585862;0.10546171727680174;0.011149297844029678;165.0;0.1846575650328743;0.08936476844652014;0.008003266364697599;153.0;0.1644306538484454;0.08669487804613663;0.007532708479379913;145.0;0.15769823542764239;0.08501277003137837;0.00724255666559909;142.0;0.15580192431267112;0.08002710778405413;0.0064176839685422815;144.0;0.15221448982058997;0.08258039420584905;0.006840244881469592;152.0;0.16488812180151255;0.0695871279268375;0.00485073390319479;148.0;0.14635131289013661;0.06591479896770847;0.004351186956676106;145.0;0.14290056640422452;0.06422162421327397;0.0041292220207474846;151.0;0.14169024315342824;0.06683675043193903;0.004473604596593949;158.0;0.14305401261492517;0.07241910951189316;0.005254163598468835;150.0;0.14545155215415517;0.07940471540797632;0.006320698310286763;153.0;0.14920439851218562;0.07664272406458729;0.005889486655560868;158.0;0.1519011327372062;0.07881663721260114;0.0062251181411353195;148.0;0.14895178971850392
0.046428447330632186;0.0021622828866651213;160.0;0.13462135699136615;12.0;0.042149528215016475;0.0017823869862044924;142.0;0.12664215701593634;0.03863963848523598;0.0014974303811848238;147.0;0.12274029683210531;0.03699612082077863;0.001373140615619481;150.0;0.11938134729879601;0.03585231375118851;0.0012895342930202437;146.0;0.11844855978348333;0.035336228354418776;0.0012525494451913418;148.0;0.1173319612845103;0.034900746803290014;0.0012216334723280536;153.0;0.11757626942056398;0.047341910911754326;0.0022482908666329178;161.0;0.1336721340620073;0.037473917695961007;0.0014086841511260302;147.0;0.11772382226342365;0.03773020260182585;0.0014279457453025193;151.0;0.11684104746009419;0.04039395920659343;0.001636631211864152;158.0;0.11811640055765658;0.04262825819459923;0.0018223626381987928;152.0;0.11927247329740258;0.0407144675405181;0.0016624311355131836;149.0;0.11854399409667013;0.040767601186000486;0.001666885755540292;152.0;0.1195781851492672;0.0425368802264507;0.0018147389356905914;154.0;0.12063927895836517;0.010061814747306828;0.00010156731979763192;155.0;0.07270537408048695;0.09709267907967986;0.009450136837367682;168.0;0.1788300852120735;0.10067920280286397;0.010158598322216866;172.0;0.18236799194809292;0.09273123749166129;0.008618333106900147;170.0;0.17432983381551959;0.08196518322908089;0.006736505217648075;167.0;0.15845828644373372;0.08211784628428191;0.006764461861391238;157.0;0.15257596477933122;0.0814745368281287;0.006659419946608593;154.0;0.14968969761331627;0.07598456716351594;0.005792360660573446;161.0;0.14635680265285897;0.07497395469798186;0.005635968958184769;168.0;0.15845968386646206;0.06695593864048975;0.004497266250267134;152.0;0.14201936453313105;0.06305087403065472;0.003987971837202759;147.0;0.13914057226463783;0.05965849831162057;0.0035697329912470614;155.0;0.13700521139532348;0.05943161295499065;0.0035406635512142733;161.0;0.13748397819729596;0.061685596164540876;0.003814759790728749;152.0;0.1392420441945002;0.06665146534580547;0.004452167901228684;157.0;0.142805121204894;0.0656108569150891;0.0043133018638290355;163.0;0.1437143925731086;0.07468472870674275;0.005595397557788208;144.0;0.14254904512576555
0.046413792865564164;0.002160660928837637;157.0;0.13801326175775347;12.0;0.04306681180781089;0.0018590235268012576;155.0;0.13059677989599888;0.03909232153293538;0.0015327265958615436;152.0;0.12614397642562708;0.03801996473973199;0.0014498267850888164;151.0;0.12376343576411923;0.03720408444029049;0.0013884023865128698;151.0;0.12258442914822594;0.03668661916326049;0.001349954564318984;150.0;0.12125740137604589;0.03785847362422673;0.0014378269192407414;162.0;0.12121067804799215;0.04645618155306232;0.0021644158198132588;154.0;0.13697203078101214;0.03725510708095549;0.0013922525906089952;148.0;0.11946622058157245;0.0369683419625891;0.001370745501732471;147.0;0.11873347255890264;0.038946077019572756;0.0015215693686155042;147.0;0.11961391091918185;0.039961210165135486;0.0016019350119935824;144.0;0.12008056451460325;0.03944112347133688;0.0015602729477454755;138.0;0.12015925078051617;0.04062616240294275;0.0016554729985613465;143.0;0.12220296453854501;0.0433065984721788;0.0018811633140850355;141.0;0.12397179517427015;0.009615133604134197;9.273985037752341e-05;150.0;0.07291954715312612;0.09161707693606061;0.00842079310110929;160.0;0.1761227303370031;0.09404810020843452;0.008873626444886776;162.0;0.18010574009367172;0.08579643831077653;0.00738334117001873;161.0;0.1715374759335045;0.0740360698294792;0.005498177849903218;161.0;0.1541794695622223;0.07299081285670381;0.005343929507169903;158.0;0.14847046413911227;0.07172632290415319;0.005160562410165393;160.0;0.14579057707079268;0.06748798996020794;0.004567635051598794;159.0;0.14292710830946156;0.0712823219495368;0.00509746376071555;159.0;0.15398830139952754;0.06272422094263126;0.0039460926748538135;154.0;0.13868636724333896;0.06032066116313899;0.0036500410390218206;154.0;0.13654531010978227;0.0577265431215141;0.0033430258904891584;154.0;0.1343434149338216;0.05651344309505592;0.003204251322937265;156.0;0.13393524522667563;0.05656445002930461;0.003210010814990222;150.0;0.13523959793956447;0.05906636516821252;0.0034991581115099554;155.0;0.1376478153537706;0.05900195627251348;0.0034909480282475647;157.0;0.1374223238263029;0.06811127211020498;0.004652768847823913;146.0;0.13976187511511307
0.04787469989835827;0.0022935266472662616;149.0;0.1319197554366601;12.0;0.04438738348189491;0.001973722772949583;157.0;0.12488991415020692;0.04104909610127279;0.0016864635799746968;155.0;0.12152266505269543;0.03920055569585869;0.0015384696764541618;153.0;0.12059772573396699;0.037243647816908546;0.0013899114585960708;155.0;0.11812346398439502;0.036645896392618116;0.001345585100336367;156.0;0.11712050426210853;0.03826939345157207;0.0014685126721173235;164.0;0.11687566879933023;0.04820863743451183;0.002326932968669892;141.0;0.13154334289480404;0.035541000997190104;0.0012651987036156602;143.0;0.11588356246713127;0.0338128105037212;0.0011454976060292935;136.0;0.11508745103985277;0.0335642803139127;0.0011288912746680205;135.0;0.11555044480359386;0.0338236211053434;0.0011466653503253718;139.0;0.1166751502844263;0.03475516368018536;0.0012105908997745813;139.0;0.11758446214011285;0.03750317670260169;0.001409529589101691;140.0;0.12077418555766244;0.04165235069139047;0.0017365298394388278;139.0;0.12335643899025513;0.009983150760737086;9.998688291599786e-05;159.0;0.07120397177672522;0.08647840648739666;0.007502596043173257;160.0;0.17609980881254697;0.08689501498351979;0.007575409600740042;157.0;0.17864425426905023;0.0766195783931681;0.005889719657972872;160.0;0.16813220137146584;0.06482015366361867;0.00421416609220829;157.0;0.1503043766212226;0.06478866664488599;0.0042088215805942495;160.0;0.14520583304071305;0.06381023214778286;0.004080611514112131;161.0;0.1435226388153473;0.059908038125830045;0.003597715027511305;159.0;0.14035597642978498;0.06557295196347462;0.004313435191474601;156.0;0.15262273171687546;0.05559527914766218;0.003100340620814913;156.0;0.1379546265154612;0.0532732548418973;0.0028461883882385467;158.0;0.13554074408164646;0.05014666783196845;0.002522393103327864;157.0;0.13298073614323844;0.04878624968553274;0.002387167431925417;160.0;0.13262781622291556;0.048934011619214395;0.0024017976609317713;161.0;0.13230285947529305;0.04981119627861183;0.0024887095564541783;166.0;0.1349073000601332;0.049544566146448865;0.002462424054458239;157.0;0.1349080178192484;0.05821565037597908;0.0033989557674807378;155.0;0.13795022582367406
0.04378711638397265;0.001923575065062813;152.0;0.1260613968166134;12.0;0.039275474910489154;0.001547593470902999;160.0;0.11656874005730229;0.0364806795583183;0.0013351281394899006;166.0;0.11513789974724743;0.034632602078887305;0.0012031998423246172;162.0;0.11302683489268722;0.0317011009547692;0.0010079351469192979;163.0;0.1101893471188881;0.031182744233920676;0.0009753517109507486;166.0;0.10907177481218867;0.032375022951492555;0.0010515670304065401;168.0;0.1107768416537253;0.04463437250354055;0.0019987295093633318;147.0;0.12712997475306317;0.03150163200595394;0.0009948139943604265;157.0;0.10935354078878197;0.029799455883514386;0.0008901588954890177;153.0;0.10863376168740138;0.029817165509240667;0.0008910180703235481;151.0;0.10978561115412741;0.030460680761806448;0.0009298148617534999;149.0;0.11078126854510743;0.030946644678228177;0.0009600169015879004;150.0;0.11184767109970493;0.033231086428325576;0.0011067645400944888;156.0;0.11466612164919376;0.03656105429524878;0.0013405012000493456;155.0;0.11723244537629562;0.010231982686137219;0.00010501377961034687;156.0;0.07173636265650125;0.08149549873653415;0.006663112365660322;163.0;0.17144594372846514;0.08007471480639072;0.006432942685438458;162.0;0.17376795979473636;0.07359878528030644;0.005434180704908107;168.0;0.16576636377646572;0.06534793156733536;0.004283738101160714;160.0;0.1508635518317596;0.06482098432980224;0.004214972452975016;156.0;0.1460053542467153;0.06326739481138573;0.0040152763873161895;159.0;0.14372206340529523;0.05898807590115689;0.003490439381348489;163.0;0.1392596524323099;0.06487210185297375;0.004222235479294751;169.0;0.15387019124143586;0.05266132028842463;0.0027822877348395664;162.0;0.1343726536910029;0.05025798317233572;0.002534103153769146;162.0;0.1323096020398353;0.04726698219769612;0.0022412568449163756;159.0;0.13000525333366486;0.045893026012108866;0.002112659020432316;158.0;0.1297708182102903;0.046860884902135504;0.0022028945684458285;163.0;0.12934892665220046;0.04894273556770129;0.0024023960572420156;162.0;0.1320908136141845;0.048837289411216546;0.002391600223917779;153.0;0.1333947727402062;0.054901602840539035;0.0030240454266330244;156.0;0.13381253948349475
0.0386894439280035;0.001499197618983405;162.0;0.128433927332323;12.0;0.03446599883460493;0.0011899643909322292;167.0;0.11928364618546101;0.03309169377119136;0.0010975639369160564;166.0;0.11723943321149798;0.031207013063436075;0.0009750379465312722;161.0;0.11197822979788005;0.02866072889779379;0.000823149777200377;158.0;0.10811369978089433;0.02823373129033951;0.000798850383990838;158.0;0.10690642292111682;0.02700132332587439;0.0007310412506939105;166.0;0.10567362830364865;0.03852571808495475;0.0014861023887533323;156.0;0.12749344324889922;0.02806897423644411;0.0007898624449723743;171.0;0.10277459278071036;0.027450442923900642;0.0007554259756006712;163.0;0.1020757463288594;0.028493930300687063;0.0008143880017966427;163.0;0.10242201405079837;0.029521328082465843;0.000874277773360105;159.0;0.10265782898508415;0.028973218018087405;0.0008420241576699171;156.0;0.10394086241811136;0.02959840926673629;0.0008785799936385506;159.0;0.10583971911375886;0.0314637971120243;0.0009928225828684401;161.0;0.1082826456784057;0.009769778023412777;9.576425005167568e-05;155.0;0.07157420142523059;0.07305777713098406;0.005354892873001703;165.0;0.15657198337507275;0.07321851778434033;0.005378368985959674;164.0;0.16064914710632608;0.06908283020394425;0.00478796448556162;167.0;0.15615891158904116;0.06284159073066453;0.003961146942114799;162.0;0.14576731329227607;0.06238146892634714;0.0039023818552277453;150.0;0.14143663224288197;0.06016620026249528;0.0036301747001365185;153.0;0.13908497935323605;0.05633101997561143;0.0031830944756818646;160.0;0.135549929783833;0.05948163376230123;0.0035494094022308;176.0;0.14307416765513772;0.048391184881491196;0.002349046152477523;159.0;0.1266410312343744;0.047151801373678796;0.0022302493451193087;161.0;0.12437115225098361;0.04604927197024312;0.002127179259921512;159.0;0.1227865178825977;0.04647159780075342;0.00216654065730917;156.0;0.12249332275785689;0.04900161665974892;0.0024088427349586643;162.0;0.12371779214386984;0.05197771915442568;0.002710486456122445;158.0;0.12492222801700925;0.05111978247166258;0.0026215107369477186;158.0;0.12630537608628414;0.05283764756784747;0.002800915308797864;152.0;0.1285415628510272
0.06736174195081446;0.004551995815155719;167.0;0.15202983784600055;12.0;0.058565413713547225;0.0034409040399713113;166.0;0.14033132996651096;0.056829446372678186;0.0032401563721052655;159.0;0.13458188314914787;0.05282167290877344;0.00279907036236341;156.0;0.12982345958102331;0.050538965952889946;0.002562564086165817;151.0;0.1272651902762571;0.04927681842994617;0.0024361178949948237;148.0;0.1255478375380386;0.045450360340200176;0.0020724614655692705;150.0;0.12284459989237105;0.06565923103484335;0.004324949727212008;160.0;0.15186043077568745;0.04676681949787955;0.002194310683644257;162.0;0.12143944325208016;0.04655147553848988;0.0021741275976030127;155.0;0.12110569396401472;0.04818512210743856;0.002329347129229323;157.0;0.12077128271885584;0.04945421437332866;0.002453423273628854;161.0;0.12114315173895106;0.04795570310851433;0.0023070359252760704;156.0;0.12210547690409333;0.04834968730158719;0.0023452312131225493;152.0;0.1234853456712826;0.049460859263146105;0.002453626503221199;158.0;0.12382650235242498;0.010286850349338248;0.0001061618028007533;154.0;0.07062763211770486;0.07818123209379738;0.006132121927403208;162.0;0.14654116741526566;0.08201067450115902;0.006747729620193853;162.0;0.14945270735984875;0.07848438522158765;0.006179732135533773;161.0;0.1468407206625372;0.07358843969230443;0.005430370345218315;156.0;0.14184060701897538;0.07262009963446056;0.005286204733638708;149.0;0.13842031736170482;0.07124724927938074;0.005088579325742634;148.0;0.1367278788674387;0.06897417105408413;0.00477040234539763;151.0;0.13516276148666032;0.06843120612636377;0.004698148052453334;172.0;0.13868505819908544;0.05944705094498279;0.0035452966951693347;144.0;0.1279235452473616;0.05693771563956085;0.003252299136328633;144.0;0.12582605757015952;0.055292121227323375;0.0030669927532234165;146.0;0.12417571577477052;0.054641738195875866;0.002995445463234828;147.0;0.12318706313807155;0.056341507237466705;0.003184703108590535;154.0;0.12387465114237435;0.05820345695164509;0.003398162082173342;153.0;0.12495670548236291;0.056197691894496964;0.0031684325354623443;156.0;0.124359612556854;0.06820586092537978;0.004666120422725205;145.0;0.13177883093962128
0.0784472396667036;0.006173423122032171;154.0;0.16418292961467149;12.0;0.09183915219987047;0.008460494102789155;163.0;0.15703316968986877;0.07193010300587022;0.005190720104368505;159.0;0.147689411220506;0.062177989440612036;0.0038784510737507605;159.0;0.14319845619913985;0.05971879504215759;0.0035777978441046943;158.0;0.14102558529375755;0.05835665148915086;0.003415982089992835;160.0;0.13987109167807554;0.05449869339661456;0.002979709372662284;159.0;0.13911476791946117;0.07772847582293328;0.006060362331820295;151.0;0.16517929038874074;0.05579863889710356;0.0031233997556949717;156.0;0.13919138203956427;0.055828037517404845;0.0031269069472508963;157.0;0.13851248737304123;0.05885035219542085;0.0034747378367608783;160.0;0.13895518194539627;0.060480662903287165;0.0036695393225809063;161.0;0.13884478173252535;0.05823453461598812;0.003402254583108273;162.0;0.13912876188286713;0.0581867610268998;0.0033962693817197152;162.0;0.13995743136319166;0.05861431408538919;0.0034462596276731415;165.0;0.14004755203109212;0.009952256582484309;9.937109766888656e-05;141.0;0.0683121371678747;0.12868394215176826;0.016613036942784223;164.0;0.18129668136891702;0.13085304590538246;0.017178383782749985;168.0;0.18445535243998606;0.12042284538503811;0.01454901972724028;160.0;0.17609061289718803;0.1114679869702328;0.012465673050379187;156.0;0.16358656894845175;0.11233676523379288;0.012660548178287776;155.0;0.15895664837530163;0.1120670329469596;0.012599612113993956;155.0;0.15698337446356472;0.10601197335437308;0.01127523202328387;152.0;0.15432989679686884;0.10049185802126309;0.010131609432989932;161.0;0.1658672661222604;0.09265062490412836;0.008611861402245985;140.0;0.14966356606532497;0.08730006096141307;0.007645620038833591;136.0;0.14775230042472792;0.0835303683663956;0.006998725366241378;137.0;0.1461528551025724;0.08263158611844554;0.006848936748923834;139.0;0.14573381450509937;0.08375711548518958;0.007036811677806851;145.0;0.14704008421716644;0.08617085854378471;0.007447483942835216;143.0;0.14878140028180348;0.08334968230127959;0.006967026216101957;150.0;0.14966850124803818;0.10392768872144019;0.010836259964792174;145.0;0.15274041440783687
0.06382755312786235;0.004078023190926576;139.0;0.15664324717079756;12.0;0.09804360554559342;0.009643772559597287;160.0;0.15502410776418774;0.06344165565309588;0.00403540678734032;149.0;0.14192952403666284;0.05271511446580476;0.0027819791656625154;155.0;0.13604314048289623;0.05153798090821814;0.002658706310239253;153.0;0.1336184820674416;0.05073475186876528;0.0025767724699607003;161.0;0.13318126502574876;0.04860194153143455;0.0023668325714583057;165.0;0.1331093910868886;0.06561749158779175;0.0043096433184643445;140.0;0.1586109388231914;0.04816810118945379;0.002324296418469641;154.0;0.13291623957824003;0.04871319817698634;0.0023753271961881144;153.0;0.1329585609971106;0.05183040549311257;0.0026873898686505856;156.0;0.1332841368549822;0.05445593653712119;0.0029647003870774823;151.0;0.1337606065628597;0.05299133924451402;0.002805899642426636;152.0;0.13438610503260234;0.053401368004396106;0.0028499777764393244;150.0;0.13528641600519278;0.054356858409820186;0.00294796300670565;149.0;0.135231613266217;0.008574129694443244;7.375615048038047e-05;153.0;0.0690999263024151;0.13704348054047735;0.018834035138768416;155.0;0.19773228518520405;0.1379765508622913;0.019093782860603457;154.0;0.2026865742639311;0.12587935930187585;0.015894804751148826;150.0;0.19170696727900458;0.11424208846697602;0.013090728988648409;149.0;0.1733801834900358;0.11361628625007592;0.01294728956894485;157.0;0.1660804795891908;0.11229106463283627;0.012647977679956608;159.0;0.16320433165578047;0.10646513333343563;0.011368880224805042;152.0;0.16057687802584292;0.10927689939028856;0.011974561423858145;145.0;0.17960111873272194;0.09439244731525567;0.008937023959012016;141.0;0.15818513247276922;0.08991641391393243;0.008109954302419203;141.0;0.15647101149841214;0.08841882035949798;0.00784036582946968;144.0;0.15556926099763058;0.09143285855757982;0.00838279382816096;145.0;0.15572750971428237;0.09771103402109596;0.00957353152434199;146.0;0.15801356115676146;0.1057766826501033;0.01122134503519685;144.0;0.16112145473314032;0.10020000812503227;0.010069406548103576;146.0;0.1614982434138065;0.10320400569144438;0.010684733379379864;144.0;0.15913896729308435
0.05805659252777368;0.0033797265159731687;149.0;0.1456579239298432;12.0;0.07605409318813137;0.005802832214401541;162.0;0.13804118684748234;0.05293737386429955;0.00281128077886541;144.0;0.12896336487566448;0.049029787507385576;0.0024114764905519416;151.0;0.12601398026245098;0.04793200323616263;0.0023047981375398483;148.0;0.12305701156846206;0.04663313773156481;0.002181137795993512;151.0;0.12244584701431692;0.04621213289808951;0.0021425482227874436;149.0;0.12453979115276986;0.060447149923628846;0.003663600404122749;156.0;0.14973679708305396;0.0436472069160647;0.001910497418530789;155.0;0.11995101901606868;0.04423068357866374;0.001962689737195137;153.0;0.12063885074422998;0.045999282641444116;0.0021228072405145553;153.0;0.1202886779927941;0.04874317663899897;0.0023836757979575694;151.0;0.12149486663557471;0.04892388323447324;0.00240126970494015;153.0;0.12246809150758872;0.05088783255025557;0.0025977944308755905;154.0;0.12344983384061749;0.05354196940832422;0.00287517319064604;160.0;0.1218905648909169;0.009347553334256322;8.766154936735614e-05;158.0;0.07221248526995994;0.11588579351474793;0.01346997660462096;153.0;0.19419457377043972;0.12035981799128853;0.014528127090414697;149.0;0.19996145236287952;0.11129122939714199;0.012423162788539388;150.0;0.19065403575857387;0.09723471786787806;0.009481440926066597;154.0;0.17386744129529627;0.09169691355406911;0.008432164673467734;158.0;0.16557638279271455;0.08904606154775188;0.00795100866626474;156.0;0.1616267691377955;0.08654166701820873;0.007512359419151144;155.0;0.15966006810736072;0.09812946172049494;0.00965882280562892;153.0;0.1770673426450259;0.08020635257714154;0.00645087557967196;148.0;0.1570954478438567;0.07820052027572101;0.006134564686288797;150.0;0.15614481296112323;0.07904625154716444;0.006267308601847199;153.0;0.15557638535446935;0.08325900348867157;0.006952445834692271;159.0;0.1553398716634043;0.09017246197473565;0.008155440514169688;156.0;0.1566541700503649;0.09866197343145161;0.009763147767553108;158.0;0.15971444418835992;0.09398756447599786;0.008860532704552422;157.0;0.1591863281201233;0.08483114591200838;0.007217016604418102;151.0;0.15759672305630937
0.0677738813115052;0.00460443721791198;155.0;0.16067765428981884;12.0;0.06131165266168781;0.0037714046324401197;154.0;0.14413032951179225;0.05357678827584707;0.002878905874118692;148.0;0.1388260325945199;0.04985078936063377;0.0024902926799417776;147.0;0.13633718746914897;0.04660047627444677;0.002175533855249024;151.0;0.130925495494783;0.044531012242823076;0.0019867789395378453;151.0;0.12917936029419563;0.0438242371908623;0.0019239457993192749;151.0;0.13062603906059395;0.0697005336717806;0.004868181720255321;159.0;0.16299369130708197;0.041111193125329744;0.001693408980321393;157.0;0.12535438387531803;0.04062615875141447;0.0016541597270105185;153.0;0.12506314173587388;0.04194257579007974;0.0017619487000729627;147.0;0.12479608692188071;0.043718253188177854;0.0019133243864607314;154.0;0.1256224650925473;0.044815948729286494;0.002009697279025142;158.0;0.12752845244634434;0.04772557916895166;0.0022792646637695446;166.0;0.13060044683582905;0.05166616392697171;0.002670810643783151;173.0;0.1329615372891932;0.009804066287720284;9.639237088445332e-05;151.0;0.07160963916896662;0.10820511210086482;0.011742062523309156;160.0;0.18965171912023207;0.11457836535616629;0.013168526834675861;159.0;0.1935549511145283;0.10739559013227486;0.011569312453149894;156.0;0.18473583477619826;0.09249150494230583;0.008579158875855572;150.0;0.16858174253119443;0.0862021904278626;0.0074517720541893255;148.0;0.1626175629225899;0.08423907122231748;0.007116315345826855;146.0;0.1604266532761602;0.08064999128870848;0.006523017203391888;146.0;0.1584999205493459;0.08525625288439745;0.007289255539287044;158.0;0.16938126966393563;0.07507434882267025;0.005654591120529701;149.0;0.15474440548547097;0.07274034949181458;0.005308078007066336;147.0;0.15421925659701918;0.0710847838618971;0.005068765036747796;148.0;0.15275568544676937;0.07143477712718695;0.005118588119433516;153.0;0.15224715858203125;0.07268168720706045;0.005298506150524142;151.0;0.15270577693521337;0.0755760098688795;0.005728694676136519;154.0;0.1543321795080114;0.07493551363486939;0.005631781163524593;158.0;0.15516121543204744;0.07946113770200261;0.006334419927905836;147.0;0.15472562018032676
0.0665581459038657;0.00444308346241681;159.0;0.16517701013019817;12.0;0.05722036370160224;0.0032845846219757384;153.0;0.15028867506766136;0.05212767770711997;0.002726140312836632;155.0;0.14412370274069042;0.048462628082714725;0.002356085165463064;156.0;0.13862207647921654;0.046168802033013025;0.0021380660401622126;155.0;0.13457020415646492;0.04402247119070813;0.0019436392126283694;154.0;0.13165747043340562;0.0411253853811081;0.001696370746954326;152.0;0.1303668235253979;0.06787286127859496;0.004620297382506652;162.0;0.16646348557782933;0.04073867415700746;0.0016644333964676722;152.0;0.12843189279460518;0.04036135861575398;0.001633361888422406;151.0;0.12847021962511934;0.041585583619719355;0.0017332012743703547;148.0;0.12770963185396944;0.042975944824697666;0.001851636054563584;158.0;0.12872495243759902;0.04258615971580967;0.0018174135682649402;152.0;0.1307555270700051;0.04474596323190308;0.0020052071014059866;155.0;0.13448570232106413;0.04968611589208113;0.0024728155240726613;159.0;0.13970668282553034;0.009626154701820338;9.295319684649953e-05;152.0;0.06833635855247393;0.12381538632655098;0.015375072506666636;157.0;0.19461389626777884;0.12675124529673282;0.016116241366791552;162.0;0.19833417477005255;0.11323952558031783;0.01286529222581709;158.0;0.1856825494968466;0.090988615923919;0.008305356639599014;146.0;0.1653662875823608;0.08069144941011563;0.006532294129580895;145.0;0.15746731120700505;0.07561800624854233;0.0057362462413090955;153.0;0.15412073966606193;0.07015690806415449;0.0049380396070959325;148.0;0.15116421149161846;0.0873723277835178;0.007657275212004318;159.0;0.1699668489781095;0.06303369137060574;0.003985785890936689;148.0;0.14773900282801256;0.05958878491919517;0.0035621283270024606;145.0;0.14607972982102743;0.05676759843269187;0.0032324370000278825;147.0;0.14412348508005796;0.05553623186750176;0.0030939437743007585;147.0;0.14347918649272062;0.05529038207505636;0.003066849988673077;143.0;0.14364757941610456;0.05655851650145708;0.0032090915970582187;144.0;0.14452553643172444;0.05754797334167672;0.003321292510067124;150.0;0.1449845455465248;0.06868482065361733;0.004732442149918199;143.0;0.14737272533908666
0.04915427795879222;0.002423133358882183;167.0;0.14398005331274463;12.0;0.04420886267941838;0.0019601474339806827;161.0;0.13297179684827853;0.04086620945525928;0.001673888042322575;164.0;0.1290118444013572;0.03959248519450612;0.0015707955726234173;171.0;0.12488395760361011;0.03825235978487968;0.0014658973116249245;169.0;0.12247641619723536;0.03644072336413836;0.0013305793301110105;167.0;0.11998762696354075;0.033744617043778256;0.001140618701277172;157.0;0.1167320161768256;0.05067997801035727;0.0025758195788275623;172.0;0.14769444777131416;0.035136872155160044;0.0012367606068072064;161.0;0.11834009656343313;0.03568349697590572;0.0012756271860223716;156.0;0.11892038736412429;0.03812648790792858;0.0014575914237567643;147.0;0.11816373561201735;0.04024290797542833;0.001623788730965615;149.0;0.12052886087159224;0.03824867642116844;0.0014669736834651654;144.0;0.1201975309333293;0.03845477593589454;0.0014827959400554376;153.0;0.12283912723643538;0.04089676377754784;0.0016758284543268239;159.0;0.12771937156738797;0.009495227680427817;9.04449462610198e-05;154.0;0.06793136149677612;0.12830395091315916;0.016514471667132956;159.0;0.20415130158508218;0.12992682667497207;0.01693524738838943;157.0;0.20715407450590267;0.11508138136865646;0.013286670968727578;152.0;0.19403283322381504;0.09202180540391855;0.008495645518330264;153.0;0.17341640581367349;0.08361230909297068;0.007013365182721818;154.0;0.16462255520123273;0.0806612502289354;0.006526699367897752;163.0;0.16161988386339046;0.07597690099407252;0.005789914992342584;164.0;0.15865762362146463;0.08942671795426299;0.008022796330870881;164.0;0.17513366877952613;0.06659544247931133;0.004449409331660351;152.0;0.15542845746422193;0.062244348607443226;0.003886864580938713;154.0;0.15276710281314576;0.05956682542046528;0.003559780519408663;162.0;0.15195994748326574;0.058280782023158374;0.0034076874324919437;166.0;0.1505784803474195;0.05904487213634026;0.003497358918486807;159.0;0.1514515759889007;0.060404264379019725;0.0036603274328650746;159.0;0.15191788432294526;0.06128868817189856;0.0037685114470644094;163.0;0.15146248204202536;0.07259568378903872;0.0052866013394873;149.0;0.15420011848676304
0.046895397670638175;0.0022012439992609395;165.0;0.13775796638934754;12.0;0.04104787427761077;0.0016865927354297293;158.0;0.1268298265011333;0.03798287214785099;0.0014420773264300695;163.0;0.12254582882997984;0.0374293334195862;0.0013999108880494095;167.0;0.12142687212908986;0.034759967437400584;0.0012071541643382277;176.0;0.11630702606190027;0.03387126337402066;0.001146724800869296;174.0;0.11425174295913579;0.031943109061807126;0.0010187970787802955;169.0;0.11122089583839648;0.052897364985360476;0.0027974141700204125;166.0;0.14362567853909308;0.03425000781835348;0.0011716260608307216;166.0;0.11329575177849445;0.03367953749824447;0.001132309961993869;159.0;0.114081247031574;0.03505882740583781;0.0012271275143020378;149.0;0.11484935269211119;0.03714687292739468;0.0013776013395229852;147.0;0.11714220242977307;0.03766190384014088;0.0014152341210373683;152.0;0.1174333370452617;0.04101226790193531;0.001678803749684004;161.0;0.12163903217631133;0.044598671230977355;0.0019835223454441747;164.0;0.12776874979900965;0.009384544054159007;8.834278250275048e-05;152.0;0.06802295662397242;0.11498119338997143;0.013263329408101023;155.0;0.20386572557845975;0.11644187007214712;0.013602861290917315;150.0;0.20690934367878172;0.105428968168641;0.01114837635357246;154.0;0.19635657482983412;0.08698194784251145;0.007588506574709515;157.0;0.1783218032281453;0.08192561551461845;0.006732732834010233;164.0;0.1704702347130767;0.08028853632960797;0.00646671725259222;161.0;0.16779339628214807;0.07683876444488658;0.005922019225518629;167.0;0.165287949838487;0.08414710387944271;0.007103854669769276;164.0;0.17716522754224198;0.06900372490236915;0.004776612052708166;159.0;0.1619008745680408;0.06596985837875657;0.004365852890753994;162.0;0.16021385749780237;0.06434619529105015;0.004153446827845992;167.0;0.16014651874365168;0.06349277768501461;0.004044168159910222;168.0;0.15797320960270142;0.06485218085354434;0.004219253613001348;165.0;0.15922439836510371;0.06738440787850644;0.004555477072884694;162.0;0.16109623312467092;0.07085752228435667;0.005037022962938941;162.0;0.1616434379401644;0.07437902788694165;0.005550123752330321;157.0;0.16073863317739048
0.046089750690757866;0.002130067312297653;157.0;0.13655103296802612;12.0;0.041265855990211014;0.001706801332082125;150.0;0.12638269670805052;0.04257271266505762;0.0018166486302817152;143.0;0.12289021156759507;0.03932705278742348;0.0015494926189335504;145.0;0.12035636855707248;0.03710621970650214;0.0013799043332621953;151.0;0.11479799558211422;0.036726032536425375;0.0013517667843388132;150.0;0.11377192090322968;0.036529391059151296;0.001337783382920847;151.0;0.11344806210833046;0.051709000303809996;0.0026819641800615514;153.0;0.1409324338042054;0.03691924286495915;0.0013663665564796028;150.0;0.11154435574440476;0.03520144926008973;0.0012426883316618326;148.0;0.11173788891148605;0.03529919750447849;0.0012500653535109886;150.0;0.1128988886657678;0.036443372587370335;0.0013324397919573096;147.0;0.11401478570612107;0.03708032977236034;0.0013793327123324509;145.0;0.11523366461968854;0.041838746615208616;0.0017553704310258448;148.0;0.12055053777073095;0.04653416641699381;0.002171120798269619;149.0;0.12630975621646645;0.00932653447611227;8.72618070237809e-05;162.0;0.06917764233539939;0.10644166110021881;0.011367294219417245;157.0;0.19330112449180759;0.10931018917794386;0.011988202403346778;158.0;0.19907814176555247;0.0977588400899019;0.009587278756145743;167.0;0.18828975529694658;0.0806296855408817;0.006521370256588172;163.0;0.16998361201246978;0.0759818042069688;0.005789885055117204;171.0;0.16206364928846997;0.07312514173836085;0.005363705839669569;165.0;0.15867601572622902;0.07057250967883982;0.004991693752705755;164.0;0.15790362704275498;0.07855638029227613;0.006191354903961616;156.0;0.1672870696119062;0.06571581016329106;0.004328970424559247;163.0;0.15375450817656333;0.06365100572390316;0.004060619881441349;162.0;0.15176251871274604;0.06221549004827998;0.003880880234220209;158.0;0.1508480334033307;0.061139792568602386;0.003746929003638807;154.0;0.14838721937441057;0.06161693973558355;0.0038056380300633464;155.0;0.1487694904809811;0.06389562880995311;0.004092851982172537;155.0;0.15097841565304512;0.06776173054243048;0.0046040792587369785;153.0;0.1517528411403361;0.07058910755483677;0.004992379741540052;163.0;0.1549801193523064
0.05221586688484707;0.002733125701725313;155.0;0.14294521805544375;12.0;0.046103964194597606;0.002129506522997235;150.0;0.13230994324552392;0.0482785359472163;0.0023349668892379484;136.0;0.12834533054455197;0.044603907004421524;0.001992513104028194;142.0;0.1263401829148846;0.042521779545096464;0.001810686200116835;137.0;0.12067302812673848;0.041392194877228755;0.0017155538449304948;134.0;0.11896143395700286;0.04243265012660686;0.0018010491704405997;137.0;0.12238654939037802;0.05156784719307096;0.0026633876422575277;156.0;0.14234784619391208;0.04206573272349218;0.0017711445517293184;139.0;0.1143346591951915;0.04066334399159723;0.001654783933036876;134.0;0.11369683948341196;0.04257823452746874;0.0018153727978766126;139.0;0.11600652769082948;0.04436268182869979;0.0019707492356715235;138.0;0.11759663323097658;0.04277060156912396;0.0018314542850574795;135.0;0.11842103102176714;0.045305060752136576;0.002053723955849533;136.0;0.1231860852196972;0.04754098292305415;0.002260797759928977;137.0;0.12771663491393137;0.009442464260808338;8.944521311961e-05;165.0;0.06951381902053055;0.09278074499945693;0.008629263951965407;156.0;0.18214606259294105;0.09278052346000626;0.008634005830158544;156.0;0.18323385941324988;0.08226794938707899;0.0067897624595696475;154.0;0.17465196445503253;0.06905039652981941;0.004783589472857037;154.0;0.15979228102312173;0.06620300166351933;0.004397036864389092;161.0;0.1532147673139524;0.06525531459843911;0.004272192263289914;158.0;0.15118060357690782;0.06469958330136001;0.004199542508986898;155.0;0.15179321665119455;0.06830337876757238;0.0046789763621312265;140.0;0.15765568753030887;0.05999693622773767;0.003610674265401645;161.0;0.14787998799353588;0.057498275388792736;0.003316333064717713;159.0;0.1460246678319724;0.055026339495675224;0.0030374248927632136;158.0;0.1440204372410217;0.05331940024990652;0.002851771602638459;155.0;0.14224469552778088;0.05289423877974038;0.0028067237029157912;157.0;0.14202193226575432;0.05352815631934883;0.002874213997549059;157.0;0.14233312595111128;0.054555323101242476;0.0029857999596071285;159.0;0.1423459750328155;0.06471261160378022;0.004200134403333389;156.0;0.1494467407520309
0.07668296740956569;0.005899324601290317;160.0;0.1548392134827045;12.0;0.06758891489572641;0.004582566418258512;159.0;0.14369406871375;0.06467396962034513;0.004195293372817648;155.0;0.13739815750946355;0.061903758825508866;0.003844081628983433;161.0;0.13809142642585712;0.06149097237391974;0.003790932443022782;151.0;0.13540169539294994;0.05922330769952123;0.0035175617196923675;147.0;0.13420509672667688;0.060258977627496726;0.003639127668804848;150.0;0.13644455029154573;0.07683891359050443;0.005922854727562643;164.0;0.15563260843849314;0.0569502845381429;0.0032534144671653893;152.0;0.13176444127071157;0.05724867343776123;0.0032878855417366568;154.0;0.13303034912911688;0.060323693874794956;0.0036511709193649115;154.0;0.13703944835396267;0.06327722008340846;0.004017370452502915;154.0;0.13925253283960098;0.062286533490699056;0.003892199995505352;159.0;0.13911301111995025;0.06373810498259877;0.004075453624516763;153.0;0.14215643115604606;0.067119047517779;0.004519842685233782;150.0;0.1450919408144132;0.010330624489000819;0.00010690524654665261;147.0;0.07021886750598953;0.14017570903817134;0.019701168940153085;138.0;0.19618886981234915;0.1430396256375847;0.020516414359355962;143.0;0.19906768505152952;0.12316028217247917;0.015200737314280675;135.0;0.1900064468748417;0.09445237908797595;0.00893859354972602;139.0;0.1713295724813662;0.0833935863307617;0.006965089834841329;142.0;0.1629310018338093;0.07990819538546101;0.006393507424290028;136.0;0.1600283595696497;0.07779943093214743;0.006063559140223186;135.0;0.15861077622599173;0.09809208160520333;0.009643799334087561;133.0;0.1716279873260025;0.0736402614343629;0.005430963366745044;139.0;0.1544063993828441;0.07201250009991787;0.0051931871652426;140.0;0.1531949611572457;0.06936320736595404;0.00482033242240401;143.0;0.1509389332213712;0.0684031733108554;0.004688495951216149;148.0;0.1499931358130827;0.06877445795165112;0.004740776850123042;153.0;0.15017685938067143;0.06979095166877396;0.0048822122454203745;149.0;0.15048381895303964;0.06835715441480945;0.0046848456785386445;152.0;0.14996373909343974;0.07917488013137722;0.006275943544472583;133.0;0.1539941918883411
0.08623184311967191;0.0074601440005549755;163.0;0.16586580980721286;12.0;0.07766269678881126;0.006051229525654669;160.0;0.15447579913900272;0.07181754750073818;0.00517450837882337;160.0;0.14715466598916555;0.0696039520533288;0.004860333117581133;163.0;0.1467752634630662;0.06880908798291624;0.004750047163100741;155.0;0.1452938934912276;0.06602371113575568;0.004373264738521263;153.0;0.14473809590280992;0.0669925460647657;0.004501603889123214;154.0;0.14569134148989588;0.08641821599975688;0.007492400374552897;160.0;0.1681122260217754;0.06138223951085412;0.003780103652941902;162.0;0.14251175323528734;0.0616530995533816;0.0038134813977438974;164.0;0.14384680668170338;0.06534451119284329;0.004283699362156425;160.0;0.14733058013725855;0.06872930866253243;0.004738869664138941;157.0;0.14951057508382823;0.06764566790954436;0.004590881631141382;166.0;0.14891577011271726;0.06871289751932283;0.004736868033388375;163.0;0.15156733059708394;0.07440828464570191;0.005554596669263184;156.0;0.15464651275021632;0.0103343882904685;0.00010713507972493806;144.0;0.07262602411729256;0.16471625344877192;0.027217149896116524;148.0;0.20819712611679705;0.1756359853556269;0.030948885631618635;154.0;0.21520147728989855;0.1573570950952108;0.0248420963791837;148.0;0.20453310147841086;0.12483801629163732;0.015634695555980835;151.0;0.1842422865075401;0.1104147903383814;0.012229003720568721;156.0;0.17673727157431365;0.10433229727404002;0.010919326859994718;152.0;0.17312500763889369;0.0999671600716745;0.010024770723781117;149.0;0.17031359502874877;0.11829333579073048;0.014038921718591032;155.0;0.1839762300252674;0.09001470687517492;0.008128342671207439;143.0;0.1631460138205228;0.087916688029576;0.0077535890399087325;147.0;0.16145180846468887;0.08558664768635438;0.007347980160163201;144.0;0.15870552984763409;0.08549360067597102;0.007331903870870237;148.0;0.15871459047859773;0.08671631826136955;0.007543028475289257;150.0;0.15968914387269548;0.08886190564489842;0.00792045289487858;149.0;0.16065905631769262;0.08890875843294838;0.00792777028089068;153.0;0.1600633134435751;0.09705950433856525;0.009450448673976626;145.0;0.16326525535349143
0.07967137163077956;0.006363450300429452;168.0;0.16361742773386273;12.0;0.07287452944316104;0.00532143581845003;165.0;0.15474750834699638;0.06744117799365586;0.0045557271896099275;164.0;0.14948169561660804;0.06601780188038284;0.004365133905274586;168.0;0.14819299553317672;0.06572051367158273;0.004319270592867045;167.0;0.14664639976251018;0.06235692997051712;0.003892549380075686;161.0;0.1442471293765724;0.06188236565350395;0.0038295364918449443;162.0;0.14493574001707096;0.07897172142321231;0.0062541295260938505;166.0;0.16265135657649446;0.058177984233075464;0.0033912237118915913;169.0;0.1415307382676011;0.05800015471503321;0.0033729605729801034;165.0;0.14147368544884073;0.060131774060625164;0.003627414290039369;158.0;0.1425707757802733;0.06163046320467569;0.0038107097181039125;157.0;0.14343513512074277;0.05924375188339904;0.0035212656032700936;163.0;0.14283442091817214;0.058908343970031786;0.003481523445327453;166.0;0.14413688891955512;0.06194992720396437;0.003849636009676546;162.0;0.14596761108244502;0.010518881689293184;0.00011096205745636212;141.0;0.07142707629159142;0.13847575227758543;0.019238196226230728;151.0;0.2030284704559059;0.14841735370705267;0.022099373233223404;150.0;0.20712084760356161;0.13565234705481874;0.018459169925256706;148.0;0.19582951527734083;0.11109266911158969;0.012379369950054443;152.0;0.17626548844796694;0.10012219110868055;0.010050811776626041;158.0;0.1690640235355269;0.09477699226305128;0.00900654658225716;154.0;0.16488652059285958;0.09085315376725091;0.008278079508408304;153.0;0.16253337352844402;0.10166780887425392;0.010368188200147139;157.0;0.17723950988399387;0.07738245629949476;0.006003298333925817;147.0;0.15695350806467193;0.07569513309200782;0.0057450180025425835;147.0;0.15531078249999003;0.0742727738618715;0.005530955544566691;146.0;0.15323861737745573;0.07455379614129896;0.005573848077999968;144.0;0.15310517640522855;0.07549441525019267;0.005716883717186831;139.0;0.15362102338954492;0.07868668302494794;0.0062112603463127785;140.0;0.1549359681340131;0.08011403173689953;0.006438149495563544;141.0;0.15497743314262738;0.0828739012295553;0.006884682140230362;153.0;0.15705906605176895
0.08003794947168215;0.006424394989300557;168.0;0.1640876818026464;12.0;0.0717731077805827;0.0051656850017521745;167.0;0.15369913704507251;0.06780619321749824;0.004610145504647097;162.0;0.1491471603290811;0.06590709809315128;0.004354157468323838;164.0;0.14577245827363286;0.0652452422261799;0.004266863882460981;155.0;0.14397005950278663;0.0624202368848082;0.0039061714110657777;152.0;0.14167307548254102;0.06128682170436491;0.003767576257950826;156.0;0.14013939237900347;0.07838596374158008;0.006160959570472782;165.0;0.16322001471677172;0.05900200197989662;0.0034909868037357864;162.0;0.1399862802339897;0.058762253650081635;0.0034617136020063605;162.0;0.13888448934970557;0.05951230797615566;0.003551645272191851;157.0;0.13957586368492492;0.059991935249575565;0.003608932028311095;153.0;0.14007161677387936;0.058582439918123126;0.003441757132677557;159.0;0.13851794070142995;0.05969921419528074;0.0035739865980290316;161.0;0.13932361901481047;0.06546845295229851;0.004297642092488869;159.0;0.14250998430772976;0.010633672466334121;0.00011342423017545563;146.0;0.07066587049676903;0.12282245919201709;0.015134795999125495;143.0;0.20010738735936462;0.12464643231550773;0.01558705490292339;144.0;0.20274059909179581;0.11177113083847942;0.01253262396786384;140.0;0.19096467773661396;0.0951626098891198;0.009084378735806304;137.0;0.17233029967730096;0.08993716133629358;0.008114258023102722;139.0;0.16524653129184383;0.08654442058632894;0.0075129115862988555;135.0;0.1610991739098161;0.08184836653860364;0.00671776413496019;136.0;0.15764185597500616;0.09377866264038748;0.008820784533109964;141.0;0.17162544108169342;0.06965839896064188;0.004863653779790353;139.0;0.153466627559703;0.06817474729055485;0.004657741141594746;137.0;0.1522091552701825;0.0673972000761055;0.004551771016429777;141.0;0.15146871656406016;0.06817915762821582;0.0046563700627699845;137.0;0.15134631701575896;0.06924333354297965;0.004801763149951926;133.0;0.15158259885985556;0.07370035706636605;0.005437279609407792;131.0;0.15428956488045256;0.07445461835692421;0.00555136733349741;132.0;0.1550792147500226;0.07395336794030445;0.005483819899449345;142.0;0.1536586296246589
0.08445129335729666;0.007155319077120267;157.0;0.17204440974553956;12.0;0.07147511670557535;0.005125360204394271;155.0;0.15720492351949053;0.06555787012600357;0.004311753446736073;150.0;0.15006155693124232;0.06327319411887224;0.0040161988873328985;145.0;0.14584239827869697;0.05904819042718606;0.0034975857822688397;135.0;0.14063318034743932;0.05695469211401613;0.003253590268320461;137.0;0.13837154726298154;0.05579086698110165;0.0031224317137524223;149.0;0.13722204877566746;0.08501763979781661;0.007251622286553342;155.0;0.17336730749829024;0.05528490224009345;0.003065965853610981;147.0;0.134891181340808;0.053494222681618506;0.0028706532494988867;145.0;0.13367063213528269;0.052329991651037404;0.0027472999844923855;152.0;0.13367976348241312;0.05251823448047804;0.002767173834519336;152.0;0.1343670507291563;0.05362074694010174;0.002884569016474177;154.0;0.13445209614251574;0.057188425649262215;0.0032812022521563067;156.0;0.13706008036249182;0.06398649601661925;0.004107325561984475;152.0;0.1406590492292605;0.009550759759066173;9.15114707887346e-05;153.0;0.06934450128339016;0.14136440161316374;0.020038183767054314;161.0;0.20838433348609087;0.14124228300053;0.020005116583429787;167.0;0.21083280340767976;0.12394648460026492;0.015404854045027451;161.0;0.19630789231744433;0.10412507956018542;0.010866015337271133;158.0;0.1755029637194769;0.09733384375329451;0.009493320011791364;162.0;0.16764771074370274;0.09368537248623167;0.008793432750758052;162.0;0.1634799948340787;0.08799462220719059;0.007756505698404881;163.0;0.15899769223684923;0.10469453513322556;0.01099121606513268;161.0;0.17589638164807433;0.07847130528377995;0.006171985049754437;167.0;0.15498498990825038;0.07611066864209043;0.005805989521178867;162.0;0.15444615611121823;0.07509356278977207;0.0056502558900700635;163.0;0.1534219341133717;0.07605141634219889;0.005798392408600579;155.0;0.15380748264942926;0.07818596690582164;0.0061261702294219695;156.0;0.1546417032557835;0.08249871143324936;0.0068210982987229165;157.0;0.15777991006391326;0.08437358275461405;0.007134626265098541;163.0;0.1594930271130584;0.08291756735376825;0.006889408015772712;165.0;0.15581352909890234
0.0734176707600758;0.005405380304091805;151.0;0.16020409681198955;12.0;0.06270068290543311;0.003942225947780316;157.0;0.14949769250278522;0.05840677146669876;0.0034205386136529083;154.0;0.14400001357950473;0.0567202913726772;0.0032266336783478822;152.0;0.1418532585762266;0.0545842523189178;0.00298764943320105;153.0;0.13944119793529783;0.05273811165603859;0.002788827028914462;154.0;0.13724514520165607;0.05246221128721913;0.002759995640083943;164.0;0.13624999571308133;0.07506741684030457;0.005649468439504167;157.0;0.16053583405613778;0.05230019877674653;0.0027429857752623286;149.0;0.1348061183962688;0.05094690365497973;0.0026028315580579903;150.0;0.13444480587534496;0.05024030025455662;0.002531782858416502;155.0;0.13419443640624332;0.050570223974865554;0.002565442934878855;158.0;0.13350378278987204;0.05031577448024567;0.002539273843300388;154.0;0.1342015932246448;0.05127354867916984;0.002636538580973558;161.0;0.13658600481162683;0.05292250880341135;0.002808817077245575;164.0;0.13760203128031345;0.01011476577544931;0.00010264261594081491;161.0;0.06942046582102272;0.12673341154753076;0.01611259500693233;163.0;0.20096423881230172;0.12642005862008499;0.01603403331331804;168.0;0.20292686405695426;0.10844866785913018;0.011799547823620906;168.0;0.18765278507098893;0.08712918567350673;0.007616282625126122;165.0;0.16479870400621563;0.08054900985957017;0.006508950990694513;162.0;0.15850419518950615;0.07758948389222141;0.006039300357984251;163.0;0.15571433586278013;0.0727021972986783;0.00530288136828034;159.0;0.15239410574040096;0.08776676757126775;0.007728189961910676;160.0;0.16954139501615884;0.06673791920327839;0.004468508353970568;163.0;0.14891800941743538;0.06540904266377663;0.004292224034021891;157.0;0.14847304941195488;0.06411146818532762;0.004123048837885135;154.0;0.14644556818347856;0.0644619985925839;0.00416808480282843;150.0;0.1464280199867611;0.0666769884888546;0.0044592063954257;153.0;0.14686708196655995;0.07070849417655048;0.005013793710630903;158.0;0.14953655023662663;0.07319079731850912;0.005372863175277554;161.0;0.15148989716954825;0.0701708767021871;0.004940025521428351;160.0;0.14958279366399643
0.04918275727968332;0.002424475075013538;146.0;0.13693835779139502;12.0;0.045599133880812624;0.0020850382830967552;156.0;0.13029025886803736;0.045142206478200775;0.0020436869442116454;154.0;0.1264010791019944;0.04571802974477075;0.002096569429730084;155.0;0.12580228105648036;0.04606051176729337;0.002128021374620155;155.0;0.12679808306053497;0.045362563792874386;0.0020640768876265055;152.0;0.125998522504356;0.04577164404606094;0.002101618866760447;158.0;0.12455512620922289;0.04737827666722968;0.0022507223499370265;156.0;0.13755464500875159;0.045921538576386124;0.0021156901971677586;150.0;0.12498874996610114;0.0462631499830017;0.002147287747862428;153.0;0.12464275404849388;0.04764596698986645;0.002277570568531448;151.0;0.12515575343179391;0.04861433204708859;0.002371088725644982;153.0;0.12435429691532837;0.04620944736198679;0.002142118112760295;154.0;0.12511247399318953;0.04417291485399892;0.0019567757365826356;156.0;0.12694023888940714;0.045670846123473205;0.0020907250770262997;164.0;0.12810159395150295;0.01042656492962432;0.00010907011831377276;165.0;0.070736874661893;0.08933840078419626;0.007997230556020859;152.0;0.18613115818356962;0.09428379110439893;0.008912191218789462;156.0;0.18930423546569183;0.08898968654548478;0.00793735038340327;159.0;0.17805246176250075;0.07576944918958385;0.005750610397483825;154.0;0.15656063378706017;0.07323208715320494;0.005369905328268309;145.0;0.14944219271507478;0.0707854743217763;0.005015285672927979;151.0;0.14613747347374717;0.06474545206759207;0.004195444485215463;150.0;0.14293177069691176;0.06490355225107934;0.00421956274431954;149.0;0.15843224365985498;0.057043812644283085;0.003251516717492939;147.0;0.13733903390129654;0.05577921787030319;0.003112550916902089;145.0;0.13693029712772917;0.0541569203108749;0.0029333592882348765;145.0;0.13634619805215167;0.05429431328833076;0.002949424330080005;145.0;0.13648258762865736;0.05564134023768028;0.0030975079694498656;146.0;0.13767333077787272;0.058312995694201;0.003403742985434475;147.0;0.13980036734213083;0.05887077228356953;0.00346829284427005;149.0;0.14142187523462021;0.061085390292712004;0.0037335112759811573;149.0;0.13858896460309683
0.052590116364890506;0.002774799084141892;150.0;0.13711531253032286;12.0;0.04450256910657665;0.001986861936206333;150.0;0.12626302879731932;0.041275192719639926;0.001709228747497629;147.0;0.12206476551335545;0.03934379352219713;0.0015527834835827711;147.0;0.11992265177273272;0.03736045377659877;0.001400338714552342;142.0;0.11595382291151396;0.03614398147421417;0.001310516206099022;142.0;0.11479539331123428;0.03800750550521194;0.0014492723965192095;147.0;0.11557792195617976;0.05173010180941137;0.002684596009405544;151.0;0.13824601090280905;0.03523396095707328;0.0012452772189582326;146.0;0.11298750102260897;0.034824756478166664;0.0012162692633173044;145.0;0.11258266273700404;0.03563344466892497;0.0012732776321832291;147.0;0.11360550056115525;0.036669400317391555;0.0013479864911217607;144.0;0.11493523095031659;0.03584098440336962;0.0012877720562491277;150.0;0.11553837343823542;0.0359368967550289;0.0012940544127888248;146.0;0.11811455814658758;0.03682642525194328;0.0013600542309575043;153.0;0.11946295240335557;0.009452027079244328;8.959799395658784e-05;154.0;0.06843874128077841;0.08561235463602275;0.007353271541340332;154.0;0.18874907789663278;0.09235555326817725;0.008557267842388541;156.0;0.1923801718037399;0.08785892993283245;0.00774440087946703;156.0;0.18124498807108264;0.07522556721099734;0.005677284883099403;150.0;0.1598328572680529;0.07352270575215158;0.0054231193597352335;147.0;0.14982330620777912;0.07129742530152108;0.0050994324897131104;150.0;0.14497094965560314;0.06502234301009384;0.004241157140870355;154.0;0.14111492852826898;0.06323172854055949;0.00401129428674827;154.0;0.15860720674412118;0.05633054444674282;0.0031833064602270218;149.0;0.1350902249947721;0.05438031470408007;0.002965977805629216;150.0;0.13434681739322643;0.05241535819722731;0.0027558794893931854;151.0;0.13393981806840433;0.052104650966842775;0.0027234801593169146;150.0;0.13383286990481608;0.05232386925540768;0.002746485818501375;151.0;0.13537941102359036;0.05365811231127885;0.002888403826433649;148.0;0.13757610968680445;0.0532829672446673;0.0028483066596737554;156.0;0.14045572344648996;0.06054815102095325;0.0036775300439519467;151.0;0.1366504781160493
0.05973756404939286;0.0035781699702187673;162.0;0.14115943287360164;12.0;0.04995230229272961;0.002502518014278282;155.0;0.12909840513135964;0.04663647778064843;0.002181722951776791;152.0;0.12716454028326477;0.0436365411109615;0.0019093015646112319;157.0;0.12466261653419723;0.040442065446190556;0.0016408035394186685;150.0;0.12055363821378758;0.03818515963678929;0.0014628675167171416;157.0;0.11925006830673365;0.0375205547940647;0.001412209637388286;157.0;0.1180117353877384;0.05901978996135343;0.0034927339229608614;151.0;0.14308623159045128;0.035173074764640024;0.0012411159978428748;148.0;0.11880479372464238;0.034671359070424144;0.0012059633896222013;144.0;0.11824780437604757;0.03717022537933137;0.001386112339146779;144.0;0.11910357738726515;0.03938531235033978;0.0015561763338189582;139.0;0.11979494501484705;0.03868015653714709;0.0015010317227953992;148.0;0.11896254724360011;0.04081500231459465;0.0016713058411664025;150.0;0.1222466616546044;0.04258894336229656;0.0018197205670703101;152.0;0.12397815655866785;0.00923644118099575;8.559146283284508e-05;143.0;0.06774986050592871;0.08449442928897835;0.007162706608347604;152.0;0.1878343871714989;0.0863771814842029;0.007485294625742338;157.0;0.18788665069151972;0.07797274340583137;0.006099188653223579;157.0;0.17773038119635196;0.06918252099552312;0.004801631783560896;153.0;0.1627739687054415;0.07129501448374442;0.005098936926134947;153.0;0.15796608166306775;0.07015677927467034;0.004937225105654351;150.0;0.1563909421898462;0.06479032094310198;0.004211008255624818;152.0;0.15293721204308003;0.0610752071261483;0.0037420032721432977;152.0;0.164457602369665;0.056736982281559066;0.0032289822407414446;147.0;0.14673815470548318;0.05447434560808377;0.002976396103672623;148.0;0.14434026206174944;0.052594297321613796;0.002774519046061432;144.0;0.14258191043983892;0.052672886476378175;0.0027827027277439365;149.0;0.14190686698173752;0.053517282779892456;0.002872271151193913;147.0;0.14257744868850314;0.05602060124896954;0.0031475583903947525;150.0;0.14588245298375685;0.05508158257139284;0.0030428445823939033;153.0;0.14809216664461733;0.060979137391126904;0.0037296861705599688;157.0;0.1476446030442276
0.05396460622240966;0.0029117651636496066;155.0;0.1383697429678797;12.0;0.047789458738503106;0.002285240436477309;157.0;0.13031041460834641;0.04701369590715341;0.0022139976029776536;157.0;0.12920914059460137;0.046396709692163446;0.0021559437668485994;156.0;0.12790680609387123;0.0450287925796196;0.0020300101997400223;151.0;0.12927736677829593;0.04378342543508229;0.0019194162497615547;156.0;0.12817661847893674;0.04039644007638492;0.001632982782993108;160.0;0.12554676905805096;0.053119218924682444;0.0028231295667963496;143.0;0.1407319311476878;0.04215487106586366;0.0017799036064015511;158.0;0.12577485830165405;0.042709866342934305;0.0018270860182144349;152.0;0.126160488595138;0.046046205221037396;0.002124020298791172;148.0;0.12770374735576417;0.04868005674423255;0.0023736880071273357;149.0;0.12881208110366466;0.04775011693414516;0.002284442677060404;156.0;0.12899659251915213;0.04968299217563482;0.0024747981740045285;159.0;0.13180555465888155;0.05302356741944912;0.002818346947681409;156.0;0.13394148747634238;0.00978455879083612;9.605051338466322e-05;145.0;0.06844183966374695;0.10845763818811568;0.011789663132474851;147.0;0.20085305183562827;0.1109491150654668;0.012339424472917762;150.0;0.2005460180588637;0.1008926159314445;0.01020173719119977;148.0;0.189291789204791;0.08811477215814371;0.007783757964099316;148.0;0.17274917180182525;0.08694684940282772;0.0075798049066630735;142.0;0.16857523755881193;0.08491137785348643;0.007228854345623551;144.0;0.16787115085122273;0.07926799940797247;0.006300502054060385;146.0;0.16563697213588482;0.078703158509535;0.006210757469607383;144.0;0.1772033203780338;0.07295123429716197;0.0053310478205746414;144.0;0.1626609577896162;0.06985543844423256;0.0048878968956866204;142.0;0.16034362222748172;0.06823471825824409;0.004662858696060083;142.0;0.15895806234534948;0.06993050560549076;0.004896723870478728;151.0;0.1583218027722127;0.07325197650597842;0.005372932193005827;148.0;0.15931277242755895;0.07946913689662488;0.0063222570002066675;152.0;0.16327400163345346;0.0770659096931044;0.005946052238486562;146.0;0.16391547627360736;0.07897519838170133;0.006249100577877411;152.0;0.16303578554761547
0.08866803033419672;0.007871145139741582;157.0;0.15920797696438946;12.0;0.07955229229612533;0.006325564960673081;167.0;0.15055271818930419;0.076713437854782;0.005872508035658584;167.0;0.14563856450644758;0.07475041125263006;0.005580366735151881;165.0;0.1443422038901372;0.0693895687568477;0.0048061998734654715;161.0;0.14351159792952406;0.06751977157092355;0.004548860196539478;164.0;0.14105789823808948;0.06441344145611376;0.004148004532943321;167.0;0.14083941823537643;0.0909352630236263;0.008281819326080254;153.0;0.15940219936510136;0.06550781399010475;0.004287324820392857;175.0;0.137154097577615;0.06664179806048778;0.004440600661676678;170.0;0.13862027864524645;0.07217414639491614;0.0052171763900042386;167.0;0.14155698492922247;0.07705932074509668;0.005950443475521003;169.0;0.14445765175855055;0.0741328107815215;0.005503007665154594;169.0;0.14554595673073917;0.0739695482661661;0.005476698286395081;166.0;0.1479621683146624;0.07706778531801017;0.005941245730127265;158.0;0.1501480342744442;0.010329827344796498;0.00010704345660543395;148.0;0.06868545633950282;0.18179669086467146;0.03312035928300473;158.0;0.22888219213025982;0.188971091934552;0.035801614697624426;159.0;0.2318134510236025;0.1775133204952137;0.03159443498525047;155.0;0.2207468937147487;0.15363690673077554;0.023656569721671322;146.0;0.19757269587843765;0.14467679924940943;0.02098131079985376;140.0;0.18799907140974847;0.13918045993989364;0.019417552584577266;144.0;0.18398860427592392;0.13278468213339198;0.017673097813015137;147.0;0.18005690774032246;0.14392793203289042;0.020746273425762577;142.0;0.1954928796344253;0.10986196086382534;0.012109101196530065;140.0;0.17356449304524013;0.10633770663516047;0.011344705746120088;137.0;0.17120689849278142;0.1055001310451577;0.011166555327759701;140.0;0.168685959560444;0.10854176084839019;0.011819614674931382;148.0;0.167678721123449;0.11475624472125118;0.01321181600625033;155.0;0.16801372948121246;0.12397949491960811;0.015419574426535127;156.0;0.170998375181107;0.12058140357890268;0.014585561438564185;153.0;0.17179308769536572;0.11945401161905735;0.014315821419152504;136.0;0.17737860210335754
0.11460700055613965;0.013167947177507003;153.0;0.18388365911926363;12.0;0.10338666786658515;0.010716343831920274;151.0;0.1695978545847789;0.09895782330412337;0.009821138434361361;148.0;0.16086726300336335;0.0944024746448473;0.008935158483673288;152.0;0.15626426032114935;0.08836280718540128;0.007826322388884966;152.0;0.1525675526176047;0.0862584553604859;0.007458648352915384;155.0;0.15015432126496098;0.08441925780086054;0.007144969246451151;155.0;0.14981462170650636;0.11988459007082981;0.014409028031206552;155.0;0.18748557558071066;0.0845792608353548;0.007174559567859646;157.0;0.147633522887893;0.0842642741662087;0.0071201189675434064;158.0;0.14817036504559203;0.08735469402738957;0.007652149521138054;159.0;0.14909178464459763;0.08963822272848321;0.00805538490936186;164.0;0.15047248300999852;0.0852383825638156;0.007282737294559037;156.0;0.15055428040175348;0.08378774669645071;0.007039726603320484;149.0;0.15279718253198563;0.08667397269884422;0.007532058466656653;146.0;0.15529566032567985;0.010156759202983055;0.00010349507692284933;154.0;0.06820359029553216;0.2092475776709182;0.04392737705643844;157.0;0.24032794302977972;0.2182074909566278;0.04777016282494046;154.0;0.24272176117581368;0.2019254333551545;0.04090714541377209;144.0;0.22746206749648293;0.17033388061018714;0.029108225703938572;132.0;0.1990642017581665;0.15721159471347848;0.0247951090729313;129.0;0.18579071513903153;0.15047041017718288;0.022713230692521857;129.0;0.18028261461772668;0.1439026880055226;0.020769229139842294;127.0;0.1747556730231151;0.1621353986730257;0.02637239662406078;132.0;0.20081212247667393;0.11578553874854439;0.013449036896684414;129.0;0.1664655569332187;0.112583157736741;0.012714756640694049;130.0;0.1651080027437301;0.11060536296142152;0.012273529550205914;130.0;0.1621695926647893;0.11232285428160033;0.01265731342951002;135.0;0.16158428788414897;0.11712564094924534;0.013761145793671256;145.0;0.16184416207388932;0.12461861867340096;0.015574468747533064;147.0;0.16449200326152555;0.12206786526316592;0.014946205435148022;145.0;0.16669283358908488;0.1253640630715156;0.015766250939252453;129.0;0.1700167438176122
0.10072314260599813;0.010170134477427057;144.0;0.18056604143002378;12.0;0.10938591151764203;0.01197467784485952;128.0;0.16900384695619822;0.09124354446301249;0.008330023564313569;133.0;0.1590922891408256;0.08461877278675706;0.007165381585825332;141.0;0.1527475686544938;0.08262702002352855;0.006837506263666602;145.0;0.15184527472259016;0.0805407252919121;0.006496704683899346;147.0;0.15025475646557607;0.08075227188317696;0.006530859757329911;143.0;0.15069494350135096;0.10612626422722256;0.01129614342000622;148.0;0.18562049693287686;0.07803775032853828;0.006099734475861063;147.0;0.1470500249269097;0.07673334851532755;0.005900835965535233;148.0;0.14640399350368097;0.07618542329196067;0.005820776531736309;152.0;0.1461065695080674;0.07541600212846489;0.005705056466165478;155.0;0.14626532080742755;0.0741612132860762;0.00551576955940084;149.0;0.14706784906570913;0.07543037261016952;0.005704134599647595;144.0;0.1500656465210803;0.07915648029153345;0.006280477704238744;152.0;0.15374863142836026;0.00941507971154075;8.89348625620506e-05;162.0;0.06555776265051069;0.19836437129095333;0.03944417888417622;158.0;0.2626409347566159;0.20604202485812737;0.04256509127542824;150.0;0.26521177188235223;0.18233843836161076;0.033335100191847974;142.0;0.24439359516378137;0.14183885929825626;0.020169082614267624;132.0;0.2102514076525602;0.1250304687612664;0.015670732229892913;127.0;0.19190048897362383;0.11773011344943074;0.013892336955883747;124.0;0.18386017039498367;0.11087010356482997;0.01231796116291689;119.0;0.17872109928906998;0.13566317051895527;0.018437353559290687;143.0;0.214850829604147;0.09557236443233696;0.009163549543836202;131.0;0.17308742717966422;0.09288068771921204;0.00865478594268406;132.0;0.17208655170052461;0.09013333528272156;0.008150173477568155;136.0;0.1704421860654494;0.08924915322243822;0.007990955344348268;138.0;0.17028622578365915;0.09038688534501992;0.008196355663933005;140.0;0.17163941439021632;0.09500672420507972;0.00905577599628815;142.0;0.17506083364100497;0.0955222034168331;0.00915426538842787;139.0;0.177909332504134;0.10165216188025179;0.010366306702029277;133.0;0.17273230354633723
0.07839211872788683;0.00616238880816847;152.0;0.1693504448460543;12.0;0.09084735171254671;0.008278001258791644;144.0;0.15864310661033607;0.06843279827339448;0.0046977312925753;156.0;0.14941298371228284;0.06293863552868272;0.0039728360287519015;160.0;0.14531767788639574;0.062350000611883505;0.0038993971303448826;163.0;0.14541059731801664;0.06034250263698401;0.0036524937615839514;167.0;0.14352933866901385;0.06165024988884982;0.003812938049683328;167.0;0.14483068292891627;0.07943911944319539;0.006329823375524567;159.0;0.1689579775717221;0.05848986924057389;0.0034322324576585472;163.0;0.1402667290491721;0.05811802219656394;0.0033887508877274413;166.0;0.1402939181094286;0.058831632586502695;0.0034724608854711635;165.0;0.1406280496100892;0.060256559582482896;0.0036427414957816793;165.0;0.14144358307017144;0.06194303736161375;0.0038495084272522117;162.0;0.14306455300906032;0.06567282253372375;0.004326918404827995;163.0;0.14676533774379166;0.06978699719372211;0.0048860982508435544;169.0;0.15090859188050804;0.010396003384739054;0.0001084265715693087;164.0;0.0683344457528687;0.20738556048533247;0.04314797479883775;157.0;0.2779172695505374;0.21254289048355957;0.045316882244489896;152.0;0.28031460582117806;0.18944517537703542;0.035993604567732526;146.0;0.25884206546052235;0.14905061358999078;0.022256893420473458;143.0;0.22351344207286733;0.13325009164899462;0.01777400917581486;143.0;0.20476928114979775;0.1271267894323111;0.016177646985025895;143.0;0.19718253137810338;0.12594264475464012;0.01588630780888604;140.0;0.19319551222199252;0.14549485624452038;0.02123227385500514;157.0;0.23095531000448927;0.12052997851624846;0.014557473282184525;144.0;0.18691397060616768;0.11497779754951058;0.013246070717206168;142.0;0.18424241062111593;0.10998850207140504;0.01212318858601813;141.0;0.18316179647425435;0.10656611631253504;0.011383417232555353;144.0;0.1830515934232417;0.10603038169449584;0.011275455854411214;144.0;0.1844007950458854;0.10931126149821783;0.011985989868108593;147.0;0.18753776392926463;0.11244161184545194;0.012680480003511943;145.0;0.18995898702454228;0.13190792432584375;0.017431103099357304;145.0;0.1893119223768807
0.07095113168247494;0.0050437266350795915;149.0;0.16453384835679147;12.0;0.06334916649492912;0.004026204240491294;152.0;0.15085406958498515;0.08262465752725488;0.006846942504004271;158.0;0.15670938408429247;0.05516058494259482;0.0030514127967259373;158.0;0.14298912885556186;0.05753398970485029;0.003319623339896533;156.0;0.14415434505639396;0.052532042833014325;0.002767796564857109;167.0;0.1428805111227835;0.05146527820454765;0.002657096523728753;171.0;0.14192607066029886;0.06898788716223873;0.004768576785494225;151.0;0.1622153138812787;0.05214217359940676;0.0027271674001355926;161.0;0.13738208373463115;0.05218126367979621;0.00273090454427625;172.0;0.13616435094235732;0.055623003768634535;0.0031030681252519725;169.0;0.13693983858758893;0.05829630665448915;0.0034087009180042887;167.0;0.1379179802646773;0.05732624248045969;0.003295713512550044;164.0;0.13818371651208214;0.05826952469617108;0.00340591309295068;166.0;0.14075154841860996;0.05950262698261566;0.0035515275671720225;163.0;0.14333484323703558;0.01093234296903023;0.00011989274337063108;160.0;0.07058431026777377;0.1862398761565898;0.03479916153110896;156.0;0.261752360805436;0.18982137181123637;0.03615013338243983;151.0;0.26236372840400696;0.1741446158490712;0.030425209778966143;143.0;0.24131890197371908;0.15046528300497924;0.022713115511682515;142.0;0.20913112947635454;0.1451817082488067;0.021145051157534032;138.0;0.19523103444917356;0.1419231366250371;0.02020673165417835;142.0;0.19210064665410218;0.13743758896559;0.018950984633862154;141.0;0.19160236123968918;0.1432329241460192;0.020582781751520215;154.0;0.2216268613369066;0.12503245278105932;0.015681101524293615;148.0;0.18547558522213395;0.11999172797945185;0.014442830183492794;145.0;0.18289128167099425;0.11608100912611638;0.013517400631211136;140.0;0.18161324680975333;0.1142529241616609;0.013096425138270081;140.0;0.18196165896470934;0.11455855146849958;0.013166632143261114;146.0;0.18338285435346993;0.11751819306527041;0.013855609915234483;148.0;0.1862961149579826;0.11912647894894289;0.014237536289668652;149.0;0.18660106441773305;0.1354782418430321;0.018406642458635773;155.0;0.1873534078548426
0.06275921099753683;0.0039515704498352755;148.0;0.15740564108833666;12.0;0.05775601865092954;0.003346673124712982;148.0;0.14583391774722898;0.08898073181247253;0.00794001924232509;150.0;0.1548681381474656;0.05151741189915857;0.002662655306251215;149.0;0.14187624809734908;0.055065532664844596;0.003042151853212747;151.0;0.1418898777690737;0.049747035131445155;0.002482835159136022;158.0;0.1407027900668829;0.04768301544708226;0.0022808380720418108;154.0;0.1403071811406494;0.06485545647042287;0.004219901323413;150.0;0.15990155149565596;0.04819264060622619;0.002329891484837837;151.0;0.13595510121310242;0.048428939180908195;0.002352947073689703;159.0;0.13409845618609176;0.05175843254049378;0.0026876438572998053;161.0;0.13382770117341608;0.05401936698927482;0.0029276133360120193;162.0;0.13424390129497277;0.05183214568955488;0.0026953232429401805;163.0;0.13393499691814573;0.05089861560453454;0.002599121120685041;158.0;0.13553978767942387;0.05142133040294786;0.002652771485000379;148.0;0.13620190438874338;0.01036765491673384;0.00010783365515943423;162.0;0.06935480921219978;0.1665615356008086;0.027834254081184423;172.0;0.25675214453051143;0.17864758959394172;0.03201879460817387;167.0;0.26165102468880225;0.17216138941417367;0.029729694549580774;165.0;0.24434594697783202;0.15109744339196024;0.022885234526831937;161.0;0.2127569657274936;0.14634470761720603;0.021454266606949556;154.0;0.19826620816561982;0.14298712524886237;0.020480802695295133;156.0;0.1954100175589928;0.1351791880533586;0.018309389879183006;156.0;0.19552354288728804;0.1309724189822842;0.017206570904324616;163.0;0.21899104342204223;0.11539867249125232;0.013343643746982938;161.0;0.18879838188399597;0.11009698702142466;0.012144397102121689;157.0;0.18612543755302832;0.1077652298701498;0.011638431821814087;155.0;0.1836242070309886;0.10770218187054079;0.011625292086814168;152.0;0.18340761227900224;0.10947728005871972;0.012015332767232087;158.0;0.1853021012979748;0.11460801116623437;0.013167868383221612;158.0;0.1878718553925829;0.1124998211057282;0.012687220032846891;157.0;0.18638973755363003;0.12481410445459139;0.015618368428525709;169.0;0.18984653117037992
