rms_s1_ch1;var_s1_ch1;zcr_s1_ch1;wl_s1_ch1;rotule;rms_s1_ch2;var_s1_ch2;zcr_s1_ch2;wl_s1_ch2;rms_s1_ch3;var_s1_ch3;zcr_s1_ch3;wl_s1_ch3;rms_s1_ch4;var_s1_ch4;zcr_s1_ch4;wl_s1_ch4;rms_s1_ch5;var_s1_ch5;zcr_s1_ch5;wl_s1_ch5;rms_s1_ch6;var_s1_ch6;zcr_s1_ch6;wl_s1_ch6;rms_s1_ch7;var_s1_ch7;zcr_s1_ch7;wl_s1_ch7;rms_s1_ch8;var_s1_ch8;zcr_s1_ch8;wl_s1_ch8;rms_s1_ch9;var_s1_ch9;zcr_s1_ch9;wl_s1_ch9;rms_s1_ch10;var_s1_ch10;zcr_s1_ch10;wl_s1_ch10;rms_s1_ch11;var_s1_ch11;zcr_s1_ch11;wl_s1_ch11;rms_s1_ch12;var_s1_ch12;zcr_s1_ch12;wl_s1_ch12;rms_s1_ch13;var_s1_ch13;zcr_s1_ch13;wl_s1_ch13;rms_s1_ch14;var_s1_ch14;zcr_s1_ch14;wl_s1_ch14;rms_s1_ch15;var_s1_ch15;zcr_s1_ch15;wl_s1_ch15;rms_s1_ch16;var_s1_ch16;zcr_s1_ch16;wl_s1_ch16;rms_s2_ch1;var_s2_ch1;zcr_s2_ch1;wl_s2_ch1;rms_s2_ch2;var_s2_ch2;zcr_s2_ch2;wl_s2_ch2;rms_s2_ch3;var_s2_ch3;zcr_s2_ch3;wl_s2_ch3;rms_s2_ch4;var_s2_ch4;zcr_s2_ch4;wl_s2_ch4;rms_s2_ch5;var_s2_ch5;zcr_s2_ch5;wl_s2_ch5;rms_s2_ch6;var_s2_ch6;zcr_s2_ch6;wl_s2_ch6;rms_s2_ch7;var_s2_ch7;zcr_s2_ch7;wl_s2_ch7;rms_s2_ch8;var_s2_ch8;zcr_s2_ch8;wl_s2_ch8;rms_s2_ch9;var_s2_ch9;zcr_s2_ch9;wl_s2_ch9;rms_s2_ch10;var_s2_ch10;zcr_s2_ch10;wl_s2_ch10;rms_s2_ch11;var_s2_ch11;zcr_s2_ch11;wl_s2_ch11;rms_s2_ch12;var_s2_ch12;zcr_s2_ch12;wl_s2_ch12;rms_s2_ch13;var_s2_ch13;zcr_s2_ch13;wl_s2_ch13;rms_s2_ch14;var_s2_ch14;zcr_s2_ch14;wl_s2_ch14;rms_s2_ch15;var_s2_ch15;zcr_s2_ch15;wl_s2_ch15;rms_s2_ch16;var_s2_ch16;zcr_s2_ch16;wl_s2_ch16
0.0061527310107839924;3.797263237378615e-05;160.0;0.05883429512765821;12.0;0.010579549931127363;0.0001122799515920331;145.0;0.05950393470163352;0.010983385045293479;0.00012101974471427048;138.0;0.05974422188142967;0.011873256457291868;0.00014141040760927765;146.0;0.06058911315214567;0.013558680672654557;0.000184426915878254;133.0;0.06317200509425594;0.015204187519703741;0.00023191297307054672;132.0;0.06804176955936514;0.01840734738325073;0.000339932647598442;137.0;0.07499938526649087;0.011095536954246683;0.00012348734993755095;138.0;0.05881315269351747;0.009581733920547033;9.210451206408284e-05;154.0;0.06592002836851085;0.010405478127065442;0.00010862870047096952;154.0;0.06725159568985906;0.011197438679448547;0.00012578745335836366;147.0;0.06774764242451989;0.011973864483987025;0.00014384202206202566;154.0;0.06865991002404966;0.014340268079107177;0.00020629929303539942;154.0;0.0681717345282227;0.015465046065668375;0.0002399430714685042;160.0;0.07138097877905542;0.013233384156439005;0.00017568617089856682;158.0;0.06874083135259403;0.006862081282794528;4.72411359096124e-05;140.0;0.061284924937386055;0.011402258839250666;0.00013039100263498977;145.0;0.06239218621444564;0.013445290955176695;0.00018134180244201804;147.0;0.0652551738127317;0.015035353235177344;0.0002267336418795401;147.0;0.06824954444615475;0.017341456427885975;0.0003016499086831825;142.0;0.07159368170961208;0.016105304025918015;0.00026019292768089805;139.0;0.06984282555142077;0.012566244740975155;0.00015840932849080157;141.0;0.06486755423705261;0.010096225207467816;0.0001022578213239624;136.0;0.06294116114483125;0.009958780978363313;9.946363682190733e-05;145.0;0.06210948809978201;0.009252999040957168;8.574588006321351e-05;155.0;0.0606305061766507;0.009433714406864496;8.910054865453184e-05;160.0;0.06020560942959023;0.009782176838428192;9.585690831339086e-05;153.0;0.06085629858349325;0.01118404473850385;0.00012527001689223061;151.0;0.06239081310352099;0.011068218850737046;0.0001226591898457479;157.0;0.061844672740734546;0.011210162705940597;0.0001257880777409343;147.0;0.06253048832205846;0.011179051996642774;0.0001251258583316377;155.0;0.06259775594026303;0.009623892544972434;9.281719220860453e-05;149.0;0.06158785061594233
0.006232172296759591;3.892605592149587e-05;168.0;0.0604834363612807;12.0;0.039125081738141124;0.0015356375033397317;140.0;0.09829038461029352;0.040452578374566166;0.0016417669815561127;134.0;0.10005885625760721;0.03412275065277423;0.0011681374688781532;137.0;0.09613363065822264;0.0313788488091634;0.0009878604259269796;128.0;0.09372960641859104;0.0325834304126275;0.0010650880606749707;140.0;0.09711609406630414;0.03591727393398708;0.0012941098317098792;146.0;0.10250668597129199;0.03698413410595178;0.0013719451850676234;145.0;0.09265253019571272;0.0355398606077411;0.0012668660784473096;153.0;0.09060335327917025;0.036016138378044044;0.0013009307937783042;153.0;0.09308923030385112;0.04224360675279425;0.00178955518258094;157.0;0.09937735810279519;0.047199986918263936;0.0022343193364993846;158.0;0.10274869173219896;0.0487819206329396;0.002387578675356031;161.0;0.10163236574075198;0.045784453069922654;0.002102758524527784;162.0;0.10051104795254773;0.040611240980506905;0.0016536494418603889;162.0;0.09553775532610094;0.006474398120985728;4.188794262234046e-05;157.0;0.05995454627989918;0.02008126924210915;0.0004045159856444456;152.0;0.07276516683913417;0.022559448920264156;0.0005104904679789188;150.0;0.07606878568676234;0.02509476732716843;0.0006316769523786122;153.0;0.07953840674004932;0.027635084207865368;0.0007661849229558164;149.0;0.08353906611189232;0.026311932384148473;0.0006945812923908997;148.0;0.08201673679572441;0.02073776844687342;0.00043144332465153146;145.0;0.07679679383090339;0.016084244223605233;0.0002594871883212068;144.0;0.07145284084691417;0.017149729221466;0.00029496598882632074;156.0;0.06952265857343842;0.01326604303335604;0.00017626400615241016;138.0;0.06783522215040987;0.013796915127236294;0.00019085670775872396;140.0;0.06945308436148395;0.015241362887351114;0.00023304538518915588;140.0;0.07254634177048971;0.015579675203964367;0.0002434089860390124;144.0;0.0703328402425047;0.015620260853211207;0.00024470115924489857;145.0;0.0699511632840668;0.015735417274480364;0.00024833574287844585;141.0;0.0706195566317144;0.01567099218489968;0.0002462861209200976;145.0;0.07067940573639128;0.013084334393753321;0.000171679248312949;130.0;0.06764434990178908
0.006770459989863585;4.5988325580712185e-05;159.0;0.057554150929056413;12.0;0.09238367199101397;0.00856113878530228;146.0;0.16910493227905993;0.09873142066968298;0.009779825431114804;144.0;0.16866778751269385;0.09359154929819556;0.008787940115952719;139.0;0.15951262867275237;0.09434658417075405;0.008930356959885944;130.0;0.15386313337987306;0.0991492569749854;0.009862561203983624;146.0;0.15508961649751457;0.10246107435492453;0.01053178913844365;150.0;0.15722262708663337;0.08865434159132604;0.007877967116435583;157.0;0.15811379007937668;0.16571508518999933;0.027551322865791768;148.0;0.16936868740033253;0.16469065642613523;0.0272089367990264;157.0;0.17257541901556886;0.15298288557097875;0.023474746693253987;164.0;0.1787649831603536;0.1455321350693594;0.021242542320848563;156.0;0.17929592069590383;0.11897020111470819;0.014194342966793548;157.0;0.17568700941449075;0.10596865950672783;0.011255173645393806;156.0;0.17302013399031357;0.09437919681350518;0.008926388747954112;164.0;0.16271971137913108;0.006999170870340099;4.914908101012338e-05;159.0;0.059880212558997385;0.05247797052822714;0.0027598793014444534;146.0;0.11143304435170581;0.04960578570900485;0.0024665666362929926;146.0;0.10975567432285747;0.04961514961159167;0.002467099475618968;151.0;0.1106186302260128;0.050315665918387695;0.0025368933289313727;143.0;0.11610674427478952;0.04964905318024589;0.0024708999531059136;148.0;0.11738637000551909;0.042914027383586496;0.0018454784532271448;156.0;0.11086297956561056;0.036291922406801444;0.00131919837858197;159.0;0.1024586733515037;0.046362422243318845;0.0021539855890476372;154.0;0.10734336837321976;0.0348493661859402;0.0012183928397467932;133.0;0.09836289200040428;0.04239738413881702;0.001803275460664975;147.0;0.10216036792250802;0.05718237334746393;0.003279944587840729;148.0;0.11379314161268758;0.04065612079704427;0.0016501205548371486;143.0;0.10314907868256144;0.040636796047483596;0.0016489760465615664;142.0;0.10332274829126525;0.041105013696382656;0.001687558104132052;143.0;0.10409895546246593;0.04070332823218831;0.0016543028356912808;145.0;0.10416414072565332;0.02994030590973469;0.0008987841428451215;130.0;0.09356406221178078
0.007045143541434067;4.9795695849980616e-05;147.0;0.05613495543170848;12.0;0.1106326752903374;0.01228070939597721;156.0;0.18738762447120533;0.11647265756824975;0.013609680917209006;157.0;0.18835126546500175;0.11137940356418262;0.012445639995331641;151.0;0.17942241097274553;0.11275662924199902;0.012755945966513624;148.0;0.17427590103459423;0.11955001933199087;0.014339243689850617;151.0;0.17694072263268515;0.12580050730161227;0.01587731658225037;152.0;0.18251817083062422;0.11546440810580773;0.013377148568447055;150.0;0.18102683952222043;0.29228754605718;0.08570768194661893;135.0;0.22252520366354814;0.2575750451826334;0.06655283273340779;145.0;0.21611130027755035;0.21037141070402146;0.04438164373075341;155.0;0.210585896186373;0.18832262562516466;0.03555255562037608;148.0;0.20555902688865602;0.1500884812962996;0.022589940706491823;150.0;0.19956143608399826;0.13478334318838303;0.018225994338529138;149.0;0.19800690049824232;0.12026621084818435;0.014512626156470755;153.0;0.1867229401155816;0.007283764730939416;5.319986127521282e-05;148.0;0.06217881408724676;0.07666708230792202;0.005895942802433436;158.0;0.14918722039099996;0.07447232471548507;0.005563172937417791;152.0;0.14615715207972563;0.07573337824785914;0.005753693493433503;158.0;0.14831320533131911;0.08136615760146312;0.006641919011496347;156.0;0.15681992761725433;0.08157808172764304;0.00667653114716347;157.0;0.16079078171192504;0.07044301034289971;0.0049783746382191735;160.0;0.1527067724227196;0.05965331411573264;0.0035698736186538745;155.0;0.14192099330381897;0.07206681217105955;0.00521025968365755;152.0;0.14640080179020865;0.07096915410066829;0.005048814074755064;157.0;0.13842641882551004;0.07926847075016843;0.006300104051070526;166.0;0.14294357311050038;0.09923820041427199;0.009876385259009812;163.0;0.15804171397686997;0.0900900393338959;0.008142627841482598;156.0;0.15606543057746539;0.08992812101644748;0.008113340573580267;155.0;0.15599984803541567;0.09054047663866316;0.008223649337835221;156.0;0.15626315149717138;0.09016726605151758;0.008156904276888678;158.0;0.15653157269005993;0.06582869931010517;0.004345945439047724;160.0;0.13626135466739953
0.0062802475874380965;3.956942120213162e-05;147.0;0.05466046537453558;12.0;0.10836236328990008;0.011775701652428614;156.0;0.17923288079790778;0.10949809027618766;0.012025921937248857;159.0;0.18160156327579613;0.10236236379991426;0.010509897001996796;160.0;0.17535283541043328;0.10018018444912434;0.010065909667164412;163.0;0.17141632314962654;0.10518146098096608;0.011097673692917592;158.0;0.17477330976818972;0.11449392803563689;0.013150815425572233;151.0;0.1844639444497792;0.1179953327886803;0.013966589294259512;152.0;0.1796014508000412;0.33868921864558493;0.11494474865370943;147.0;0.2554667305785901;0.2907139719211846;0.08468394670838308;146.0;0.23794506154213835;0.23303940477071278;0.05442927376055125;156.0;0.2173526664604357;0.2083942651796375;0.04354960810444029;158.0;0.20806331441045078;0.1678230340701275;0.028249322140250013;156.0;0.19576377846342163;0.14169231317453934;0.02013488672235776;153.0;0.18804185325340259;0.12158361625602383;0.014827962320466159;151.0;0.17940385399854392;0.006939296885331622;4.831159831669719e-05;151.0;0.06185380372188126;0.0871398027912343;0.007605896698631739;166.0;0.1572514014195974;0.08548130176794107;0.007324131534740506;160.0;0.15290744511042637;0.09395139185404978;0.008851826639954494;150.0;0.15731141796967463;0.10832929733649631;0.011768411889232753;147.0;0.16947406579445498;0.10684523674088013;0.011445579073791446;150.0;0.1736355573730517;0.08666231998176681;0.007528490201204257;153.0;0.1620142256931777;0.07117578410748789;0.0050769497406196965;147.0;0.15037997489113633;0.0843065385811641;0.007120784418965618;157.0;0.1561690158882607;0.1266357036564107;0.016085849526269277;157.0;0.16696388353980202;0.12782126538936078;0.016389009589271936;154.0;0.17075095241784405;0.13334579087813933;0.01783681267617248;152.0;0.17951325974443522;0.11455100577440994;0.013151265541719631;154.0;0.1728085215915065;0.11422733552276991;0.013076811218632706;156.0;0.17262301860722554;0.11514836660840766;0.013286675995811719;154.0;0.1730456450487237;0.11474227015444226;0.013196312767804889;156.0;0.1731001892113182;0.10599883318731737;0.01126958151165711;157.0;0.1578179464592666
0.006007743844214649;3.620052240083606e-05;150.0;0.05447178806938293;12.0;0.10327087021768065;0.010683525283677137;146.0;0.18300101483202305;0.10073691342197685;0.01017141521387677;149.0;0.18085143277402357;0.09468411204150314;0.00898822568022419;154.0;0.17417164517480796;0.09447380769715619;0.008947217234868302;153.0;0.1720469967462454;0.101763855431777;0.010383974015713827;149.0;0.17641596929119557;0.11571797211811737;0.013423127658509948;142.0;0.1870247750480269;0.11054314454833299;0.012237193664919616;147.0;0.18718335880680298;0.2845566526296684;0.0811855832135566;156.0;0.2629596925833566;0.24847841729822956;0.061927551188143345;151.0;0.2445292640198768;0.20994207375538387;0.044214753631267575;153.0;0.2249806359836507;0.1935028468721672;0.037560538015231675;148.0;0.21696584743327285;0.1609881225917612;0.02598841555333893;140.0;0.20623501274938555;0.13679440146361757;0.01875972482870403;141.0;0.19627151038976098;0.11775583401293695;0.013889749818204393;148.0;0.187878734135401;0.00750720388508718;5.653837931892995e-05;160.0;0.06373196106126798;0.09946246780745549;0.009923338029075454;156.0;0.1659074978379233;0.09115005625864146;0.008335050238677531;153.0;0.15539751554311976;0.0994875186955921;0.009930111743414453;144.0;0.15812759877611426;0.11797357229019383;0.013962657655343354;137.0;0.17229737950705545;0.12013533538064096;0.014478629054926384;142.0;0.17749190380019422;0.09707890801281487;0.00945502547461286;148.0;0.164519452557803;0.08104456754951511;0.006589686231110641;151.0;0.1544668983140898;0.10053304529435621;0.01013826834873905;150.0;0.1691193550196604;0.1718116351423371;0.029609342807990897;156.0;0.18749186013948033;0.16441815731510956;0.02712060681398813;165.0;0.18630171417797922;0.159128565665745;0.02540450662921281;170.0;0.1908086196538991;0.11669970684580512;0.013661241360213513;159.0;0.17163320718988154;0.11634863480681039;0.01358033257067127;161.0;0.17136357524557638;0.11726451833755923;0.013794181084597491;160.0;0.17210838206711324;0.11681950658439366;0.013689571506571145;161.0;0.17161642952731201;0.14494240254584095;0.021070517201550835;163.0;0.17434288783308172
0.006306632778020133;3.99005728049246e-05;163.0;0.059704310664142515;12.0;0.0932959800302561;0.00870606050395875;153.0;0.17100259925412162;0.08731726063738839;0.007634018845127383;156.0;0.1681974922166696;0.08164390475505932;0.006675181278792192;156.0;0.16250823750627538;0.08286918907023377;0.006873729453567972;153.0;0.16291914977968225;0.09061178407016687;0.008227773146386598;151.0;0.17016420449452543;0.10628038559939156;0.01132421589397823;153.0;0.18563615296451355;0.11209435886337533;0.01256374526644724;142.0;0.18018217721399443;0.28110690192422216;0.07881915759530776;155.0;0.25782521286419363;0.23243155738988008;0.05383164406519137;150.0;0.23698857773647997;0.18688916509035355;0.034780789726400425;155.0;0.2177038543862509;0.16820769335675656;0.028197032280026065;148.0;0.21018472569350197;0.14803515451693838;0.021874452212979324;145.0;0.20317891743070265;0.1385956694542146;0.01919256565112744;141.0;0.1963499332424963;0.1228155927486699;0.015079249502559944;147.0;0.18586278990357302;0.008036252230711855;6.478259012503795e-05;163.0;0.06570399222306525;0.10581478293607187;0.01121781857716984;133.0;0.17853978666196899;0.10033335303020623;0.010083491131217195;132.0;0.17048537289228077;0.1067561096439663;0.011421974941432227;145.0;0.1742999615593444;0.12342104139846537;0.015272272523531156;151.0;0.18651257685704578;0.1294305214982185;0.016795583106591558;147.0;0.19325102247931555;0.11239677429318454;0.012663929140015458;143.0;0.18713570173915883;0.09990353216368479;0.010007646053262306;144.0;0.1798306581121973;0.10546718125541853;0.011143833332463035;125.0;0.18031949634508956;0.24465292102143132;0.060051718068789874;141.0;0.23511113921753585;0.2421817338766856;0.05884390584265043;150.0;0.23151768169923476;0.2195550365693652;0.0483609886197035;153.0;0.225666455708216;0.12724853447899787;0.01624346722802712;149.0;0.18708449954862333;0.12676972348593768;0.016119547614207905;149.0;0.186865043480737;0.12756526277851152;0.01632312181250397;149.0;0.1876386735572075;0.1270957396212633;0.016202406184806985;148.0;0.1868461840678014;0.19761061547701866;0.039171338548039704;147.0;0.21201368813124102
0.006458198178166598;4.1843900330707725e-05;161.0;0.06256900887861212;12.0;0.08910792095108976;0.007965449509321635;165.0;0.16851020422092428;0.09051908223232877;0.008220348199809685;169.0;0.17033786227261535;0.09010250703538228;0.008144907603704772;165.0;0.16921680425403895;0.09247486837559447;0.008578569751205672;160.0;0.17101143104955635;0.09938891746653032;0.009910225870461406;151.0;0.17909850308643785;0.11440339197807194;0.013130714064722321;150.0;0.19629348891312176;0.11172702417469371;0.01252169126912528;152.0;0.17725707169643204;0.31023729949896006;0.09654667823044234;160.0;0.258729784647738;0.25978649277407434;0.06770090632112749;159.0;0.24197335966845399;0.2069047468453329;0.0429484758823946;170.0;0.22403850014554208;0.18317872116138068;0.03366225339934969;161.0;0.21563807155059928;0.15678611850835425;0.0246622638266664;159.0;0.20805833131612297;0.1416352757647674;0.020124191365249507;154.0;0.1981050786972043;0.12084157280547876;0.014646447405282377;158.0;0.18286840817396813;0.007729114430181988;5.99243462580046e-05;151.0;0.06713651988462577;0.10359882428527907;0.010763633135410147;142.0;0.18253979520503352;0.10408090519017635;0.01086753958798586;141.0;0.18136057185257262;0.11217638973146182;0.012623516274618569;152.0;0.1881112324736087;0.12706536766096183;0.016188647103914367;160.0;0.20079850758792023;0.13523391440351648;0.018331989703935434;154.0;0.20848325613249505;0.12169931667085161;0.014855919609023766;153.0;0.20446732799566408;0.11005411896408199;0.012151345984301929;151.0;0.1969051753699884;0.10789634996288006;0.011669948335536277;136.0;0.18207666090553876;0.3199932794681924;0.10265887103451389;133.0;0.2713087999243703;0.30415911265793993;0.09276430783810723;139.0;0.260941589520972;0.2763000356348791;0.07652945276541778;138.0;0.24902657200280523;0.15966406604685274;0.02555319554245517;144.0;0.20106689475613215;0.15907675132977778;0.025366738937785602;144.0;0.20084393707716447;0.16020190978702634;0.025722472992103673;143.0;0.20178239925413646;0.15953511254826067;0.025506722250637114;142.0;0.20113683938465002;0.26014214844089983;0.06788387009021413;134.0;0.24009638665571165
0.006177973345131277;3.829161071408866e-05;159.0;0.059876713567133456;12.0;0.07305286279775138;0.005353015459107534;157.0;0.1619762271157842;0.07702762160212431;0.0059505805240629445;164.0;0.16280685891651567;0.08016654132027091;0.0064449353373011;166.0;0.16218479842765773;0.08387676402674984;0.007054610023858468;162.0;0.16313780553358695;0.09184121529707558;0.008457542966004865;154.0;0.16986572661993574;0.10604174942968836;0.01127746885255744;152.0;0.18349569872456306;0.08683746567551089;0.007562735301733656;155.0;0.16897510522267234;0.2561867227098869;0.0658237086132711;145.0;0.22762411937709068;0.21971434354553696;0.048408039881906985;156.0;0.21702876967592083;0.17613061122149484;0.03108542065342086;166.0;0.20661087250152838;0.15616440911973875;0.024442737600874384;161.0;0.20222725377847178;0.1307639534333676;0.017144395598859503;157.0;0.19781802395133946;0.11403113817281246;0.013038936100704685;155.0;0.19001438520344563;0.09318469480861276;0.008709118875799447;156.0;0.17473744857068682;0.0070210116834143205;4.945544583429283e-05;161.0;0.0660363341223808;0.09724339655914468;0.009475118610597752;159.0;0.17646398208702135;0.10109999367852676;0.010240203929872873;155.0;0.17903958990346713;0.11308161310018004;0.012809511645028995;155.0;0.18915355993267902;0.13185395231938277;0.017428120163517913;153.0;0.20509426171760328;0.1453082052802034;0.021162391221511395;152.0;0.21442610221375555;0.1300952171152308;0.016964723788582586;155.0;0.20861418603338483;0.11294360780704175;0.012786095239194916;162.0;0.19806874508920813;0.10264671149537914;0.01056346990862469;151.0;0.17851152680957366;0.2950809180407341;0.08734604592442008;153.0;0.2624954885258173;0.27455521982070924;0.07560717088038853;154.0;0.24864985480342428;0.2581795977364228;0.066870044411947;149.0;0.24104508337202515;0.1557846553041538;0.024348150790252064;152.0;0.2024756580650214;0.15535986252458608;0.024215571604345707;151.0;0.2021788826279258;0.15635913553740532;0.02452793754606373;152.0;0.20298672037919374;0.15577285146146327;0.024344437133495215;152.0;0.20283592459308866;0.24101609851905365;0.05826135644585639;154.0;0.2342138283301679
0.005587066670086745;3.1316593871050667e-05;157.0;0.05518398071009882;12.0;0.040959419556493744;0.0016796968290348814;159.0;0.11671614474527792;0.04030594556267099;0.0016252746604331746;155.0;0.11441745412704289;0.04057729225082177;0.0016477962878312109;150.0;0.11253805774480659;0.04193333933937243;0.0017579883115881798;157.0;0.11311540283696722;0.04706210816783724;0.00221810297793094;156.0;0.11640501468524404;0.05509999693999071;0.003043847338668864;155.0;0.12342387446586053;0.046888757028716976;0.0021988561649443988;173.0;0.12184374139992328;0.14551006165936686;0.02118952868666255;145.0;0.15391678494226774;0.125124022922467;0.01567064732300778;152.0;0.14544902190532852;0.10027805475325607;0.0100609708082861;158.0;0.1403803514292746;0.09015306444343008;0.008131905689201295;160.0;0.13962110794485125;0.07596909405879629;0.005776334134467256;161.0;0.13836512893385927;0.06732808897804379;0.004537344740600364;176.0;0.13666600860058792;0.052551746811519376;0.0027656227590728897;171.0;0.1277226165124041;0.006179597564184148;3.830622922134004e-05;177.0;0.060026945649263794;0.06624870969795321;0.0044031989640958115;135.0;0.12777333302237495;0.072752094231484;0.005308653636853024;141.0;0.1316539239967964;0.08477544618094256;0.00720602983851801;144.0;0.14086897044865282;0.10059810221795853;0.01013724412165262;146.0;0.1524094410372519;0.11100586805607207;0.012350984272042271;151.0;0.15875867210274924;0.09908667493935427;0.009845188839773136;153.0;0.15472844799294688;0.0842860372967629;0.007124621516456215;156.0;0.14628213418229738;0.06232975010878002;0.003896545249957682;127.0;0.1292680770198727;0.17223807590638593;0.02975892804986353;152.0;0.1897877268240601;0.17086588194717606;0.029286744576138213;146.0;0.18467772134074328;0.16502631354195496;0.02731502684268802;141.0;0.17987670470242373;0.09367947335264115;0.008798406572482426;144.0;0.15195314792836329;0.09342191532384048;0.008751869421379541;141.0;0.15132288004778682;0.09398183021574275;0.008857587823056698;144.0;0.1520945671351367;0.09369798600975823;0.008802595386285235;144.0;0.151880133337532;0.13199631240783416;0.017478556349812005;151.0;0.16722759042596394
0.005320734456012157;2.836474630860619e-05;146.0;0.05459865859762798;12.0;0.011253776028717055;0.00012699455958328616;153.0;0.05961174014267841;0.011043182896242456;0.00012235125106683289;143.0;0.05897332224780825;0.011619306779460542;0.00013527506271052302;139.0;0.05746657937810395;0.012935163274012921;0.0001676980406362209;150.0;0.05973087939389106;0.016261642794021543;0.0002645297009617324;154.0;0.06171784446622099;0.019657983060023372;0.00038624372765741445;159.0;0.06577084626369736;0.013191232057869155;0.00017429753364565603;167.0;0.06342673843995157;0.03375064681601558;0.0011400049495761274;158.0;0.07469574044552323;0.030222269844223465;0.0009151952490377206;154.0;0.07204237152206938;0.025950606112693855;0.0006755436380832105;155.0;0.07118401779211751;0.023554787146186616;0.0005566487702461086;156.0;0.06967306717158193;0.020646289929604805;0.00042762466478160133;154.0;0.06986711495673552;0.02068918784812361;0.0004292275251613341;165.0;0.07038338946680597;0.016743521882364134;0.00028068194481387066;168.0;0.06815106579805322;0.00622540054296694;3.885939566475231e-05;166.0;0.05971611132191354;0.02309224557594598;0.0005224987007031069;138.0;0.0703353480657845;0.025972173839418633;0.0006643262649764393;144.0;0.07197415706280692;0.029674741464717384;0.0008700709394573161;153.0;0.07581611650762493;0.03253359113318785;0.0010472265484667428;160.0;0.0775539984040806;0.03014628706775247;0.0009015777579981818;160.0;0.07742398768907809;0.02555352091157494;0.0006484667620682504;160.0;0.0729433649705886;0.02309514903924953;0.0005262778793582382;152.0;0.0700129523033692;0.019673165290098715;0.0003790349957264465;129.0;0.06840504467922802;0.05356344046513079;0.0028458616811585452;161.0;0.08894789400893498;0.061503438778546665;0.003762852465720311;160.0;0.09342663113496578;0.061945086111139254;0.0038324686128101497;160.0;0.09382091161278301;0.036183633925556465;0.0013124818612843747;149.0;0.07897095688128962;0.03595911238831028;0.0012958160234170907;150.0;0.0791679935180315;0.036298507488549216;0.0013204958053781113;151.0;0.07966890216938344;0.03617591581682976;0.0013120838263035149;150.0;0.07905891727938673;0.03637344903051579;0.0013125583445073212;160.0;0.07723089737224224
0.0057085808588434464;3.267691063273906e-05;151.0;0.0554073373730208;12.0;0.0164482973899346;0.0002695696957297915;160.0;0.06629842799803008;0.01724699364408985;0.0002961948231208393;162.0;0.06766399100426293;0.017732855545203173;0.0003125964518139905;158.0;0.06700197318871905;0.019230493863111767;0.0003664106226793162;160.0;0.06893109462599058;0.021904265474467177;0.0004733565881843176;161.0;0.07139221338250125;0.02480455170663946;0.0006055762946432722;164.0;0.07687853048631399;0.01874047000502253;0.0003499408673305544;170.0;0.06952220005939055;0.03408175178665182;0.0011551213148392999;171.0;0.08026980523230669;0.029363890766610872;0.0008581064900620902;169.0;0.07908143573208888;0.025727402898277865;0.0006591387635364363;170.0;0.07850535932536234;0.02465868402231812;0.0006061438697436343;167.0;0.07850099972935766;0.02372009758410251;0.0005618463314963801;163.0;0.07934241272319975;0.023588662352057053;0.0005563506406771252;152.0;0.07973223710605365;0.020664038195741544;0.000426558920377945;163.0;0.07692828807401972;0.006982133241970653;4.889306171597903e-05;152.0;0.06447385513272635;0.05595691373290119;0.0031413319163452673;148.0;0.11738842385095484;0.05610729114826881;0.0031580841722005206;151.0;0.11738015743066069;0.06290897632089805;0.003970103896180866;156.0;0.12519517440001543;0.07488747701185312;0.005625118676680716;157.0;0.1348662974245587;0.07299451422947519;0.005343075459554806;152.0;0.1346884798828211;0.05766540631554453;0.0033352039460347277;156.0;0.12304001360390748;0.04695723158044562;0.002211769953377671;151.0;0.11222598326728102;0.05146496147273144;0.002657266054957747;147.0;0.11538120074610037;0.07355843080111833;0.005428445666607359;153.0;0.12237737833993186;0.08926716660183844;0.007993871577197777;159.0;0.1340634822899581;0.11145598819310855;0.01245526373325449;162.0;0.14928353719640033;0.0932457096066636;0.008706257242113824;161.0;0.13880373775478302;0.09276967808472839;0.008617775993270864;164.0;0.13946663993087538;0.09371647171115065;0.008793468657567933;163.0;0.13942235518623042;0.09343799542972665;0.008740524044195407;162.0;0.13937870235120084;0.05678497661446496;0.003234612571443328;158.0;0.1131513348757341
0.006302158897490082;3.983779498596166e-05;147.0;0.05788312526711153;12.0;0.03439422061337918;0.0011868388151255109;163.0;0.09171600151955825;0.037448779908855756;0.0014069723486377756;166.0;0.094308718548959;0.04262289203830666;0.0018226544768572724;151.0;0.09684275726600107;0.051394128254839175;0.0026500387340643613;150.0;0.10220479997091049;0.06648150166947137;0.004434132252342976;147.0;0.1109898654732344;0.07813363493548209;0.006124902437607404;144.0;0.11945994540163976;0.03260586210038851;0.0010665923265288397;165.0;0.09210308379087671;0.04497010994574613;0.0020282486329851897;161.0;0.10116394314513773;0.042804956869261404;0.0018371798779142894;161.0;0.1014678331369657;0.04415819217021318;0.0019553972374758695;163.0;0.10434040541488626;0.04344089048065253;0.001892485995975009;162.0;0.10492368929866928;0.039622068626418865;0.0015744320627335752;158.0;0.10666955446126093;0.03740100125881024;0.0014032451974999405;152.0;0.10735912784125133;0.034342341107317126;0.001183217339812153;162.0;0.10155148378225401;0.00697018958590088;4.870980540277995e-05;149.0;0.06361353750829524;0.11946035631591742;0.014317998170496409;144.0;0.1632569110740022;0.111541714174778;0.012482155283214426;151.0;0.1588775526510663;0.11470397436927526;0.01319862555642771;153.0;0.16467992754559688;0.12969839982347323;0.016876082932494357;155.0;0.17618838472390572;0.12538231698513339;0.015771873809796208;153.0;0.17357255869870306;0.10039237240585626;0.010111238520391726;156.0;0.15894007781400352;0.08229482226068652;0.006794540354235663;154.0;0.14525464192912205;0.11768118985898525;0.013894399648808812;141.0;0.16750725195411637;0.1322517139263757;0.017536313209386426;137.0;0.17696627477515606;0.14892980654073498;0.02223229481674175;139.0;0.18760991417365971;0.16946531223693517;0.02877562753171139;144.0;0.20027660950316317;0.142044956167522;0.02022989172030152;150.0;0.17990236632480167;0.14163484577779933;0.020116765554342934;151.0;0.18043454488370242;0.14252122676252138;0.020369200124665903;150.0;0.1803898995371078;0.1423445599907568;0.020317469846752347;152.0;0.18064506365526672;0.10717795304766646;0.011520210882039259;142.0;0.15903750833181154
0.006671390257936095;4.459855515935762e-05;141.0;0.0597431469748928;12.0;0.04426962504459151;0.001961576367942471;154.0;0.1114794716501062;0.046060236502120266;0.002123717189915203;156.0;0.11302554303325762;0.050347655263810104;0.0025392467817542206;144.0;0.11467123653778738;0.05940923872857671;0.0035366503282361554;145.0;0.11913000165434584;0.07736493863305706;0.005997810708309183;150.0;0.1317865706761167;0.09521865075219665;0.009088688706357257;143.0;0.14569810409878053;0.04538742412676842;0.0020600504226969897;148.0;0.11202286528767263;0.09038340499362199;0.008173779596556451;141.0;0.1372762331761069;0.07985049588011374;0.006381991420404181;141.0;0.1329979753947347;0.06867731042890063;0.004723901643994379;152.0;0.1295343125013338;0.0628865928715205;0.003961827026069937;153.0;0.12750110847431909;0.05568148717137835;0.00310497418657647;146.0;0.12679311454963288;0.0537004849197148;0.002889186390600974;151.0;0.12635855641724847;0.049916634886465513;0.002495451434471413;152.0;0.12037890731511543;0.0070681711707676394;5.0096359316754006e-05;153.0;0.06584425977322007;0.15053221272150474;0.022735052043482605;149.0;0.18945718312651932;0.13696619364453705;0.01882158281601863;146.0;0.18343414770638086;0.13439084633061332;0.018120143977816187;149.0;0.18436684619309232;0.14490639168344746;0.02106668613873523;163.0;0.19085805712775097;0.14142242218857715;0.020065759401439457;158.0;0.1888779298323369;0.11767408196849584;0.013892601875591847;158.0;0.1786383537303561;0.1020336957835345;0.010444857255471125;157.0;0.16920353447532396;0.14592956570645507;0.021366238907750263;155.0;0.1945881062304156;0.2982382593131375;0.08917944352730113;148.0;0.2460438280587709;0.2892231402613867;0.08389461604107025;140.0;0.2456444019692792;0.27331384224302424;0.07490846086414425;146.0;0.23936962288066269;0.178263713763537;0.03186544827900744;156.0;0.1968754799871265;0.1779435375620966;0.03174762603574879;156.0;0.197017969261559;0.1791311839405236;0.032174222796636336;156.0;0.1975274528082501;0.17855730071787865;0.031968041945754776;157.0;0.19759089670991872;0.25479387869986886;0.06512826028252304;157.0;0.22724567659952397
0.006372989321070935;4.0744374198591595e-05;145.0;0.05755069424702439;12.0;0.0800021417711141;0.006421267552632419;170.0;0.1511296557520521;0.07955458313958878;0.006349716881925576;165.0;0.1509196197022622;0.07508360276080875;0.005656044268988427;161.0;0.14520176986983516;0.0760601557049398;0.0058041785776747675;158.0;0.14411446700815667;0.08548114146250929;0.0073309440890021735;164.0;0.15565957751133772;0.1043023713484822;0.010914521601054614;150.0;0.17398665987975764;0.08823233179420915;0.007810572049352401;161.0;0.154161001827915;0.2960946401384699;0.08791980736729708;141.0;0.24280379383377781;0.24508198040232604;0.06023971946243437;137.0;0.22260566460319883;0.19166597451549094;0.03684677406379573;149.0;0.19718661506364457;0.16918348430322175;0.02871379038618924;153.0;0.1865221991793553;0.14056784657373295;0.019825739073956693;153.0;0.1780796719105887;0.11587962830283428;0.01347284832569965;158.0;0.1686383138226672;0.09326780006286792;0.008727602383985667;165.0;0.1581247044003836;0.007708082487328676;5.957239817937068e-05;164.0;0.0678642421925702;0.1418749715511746;0.020194237244330535;151.0;0.20144853639545024;0.1312156763730397;0.017272978318687616;153.0;0.19676375753186304;0.1328814670272976;0.01771492764387616;154.0;0.19735566824753195;0.1478723041323114;0.02193628788339374;162.0;0.20332902985867718;0.15485541904609562;0.024058330975786517;163.0;0.20641953255230594;0.13372645766914062;0.0179411640914426;162.0;0.20023079734784022;0.11716677614632913;0.013772896926983377;154.0;0.192240240974477;0.14104935853824443;0.019959999903644648;161.0;0.20527811808303117;0.38240817240883945;0.1466936053628234;146.0;0.2848523779956058;0.3643595948178279;0.13313999489221368;140.0;0.2788723006252166;0.3390866051465205;0.11526008708558622;144.0;0.2702057162683139;0.20363233597787275;0.04157471186838422;158.0;0.2148582442926752;0.20328269391009038;0.04141896444556548;157.0;0.2145881541454008;0.20484203313142746;0.04206465063811178;158.0;0.21541018017820857;0.20412705130720413;0.041780696194203194;157.0;0.2152903481116691;0.32102746646527636;0.10339310865977777;158.0;0.2571675151929947
0.007071025333097396;5.011693717543755e-05;151.0;0.059269262359499156;12.0;0.14172517118430142;0.020141018615444227;170.0;0.21614123169320928;0.14384624691341694;0.02075363858172119;162.0;0.2157308869195509;0.1300394421212191;0.016963441180670405;166.0;0.20203155490446426;0.1266697146406927;0.01609614536430285;158.0;0.19624595620619573;0.13342013614115453;0.01785871390632913;161.0;0.2025272957305133;0.15237561127449717;0.023294151856606014;158.0;0.21834317533131684;0.1306190717988252;0.017093020617003206;159.0;0.20336677802842545;0.45665832683638397;0.2089711163185577;139.0;0.3199526636941829;0.382111066018622;0.14628881952668388;137.0;0.29373738602811716;0.2948434030904318;0.08709719547330208;147.0;0.26105333781038287;0.25203514667142285;0.06363199735611533;151.0;0.24227749750338115;0.1966091959966071;0.038717287586517116;156.0;0.22357607477578742;0.16129929001654908;0.02605491013247556;151.0;0.21512315139641952;0.13470540705178907;0.01818069733325718;160.0;0.2083265552692354;0.008865157415140195;7.884765192716034e-05;165.0;0.06884776725316473;0.1548287551671867;0.024050784602962418;155.0;0.21201898000807415;0.15586820985500902;0.024374139688781868;163.0;0.20693027502089215;0.1690262665754518;0.02866369787826534;162.0;0.20867153444999953;0.19362786656149195;0.037612208410946736;165.0;0.21863947535714462;0.2082841354704058;0.04352255744428113;169.0;0.22623818588220423;0.18568361668038158;0.034589615080795354;165.0;0.21771733781318164;0.1641200373098261;0.027022039349084346;156.0;0.20560102523045878;0.15702226546496567;0.024733974561226876;159.0;0.2185676033131636;0.4079983551814328;0.16701080140939795;151.0;0.28082627065290516;0.38937871531868423;0.15211589521523913;147.0;0.27671195972075957;0.3636434633683772;0.132666693379387;147.0;0.2719849534522795;0.23031678122543572;0.053211709757298324;152.0;0.22205385039709238;0.22993392908815985;0.05302676169177034;153.0;0.22175715338576052;0.23149405561737985;0.053754149500010534;151.0;0.22234381627988675;0.23078280323396952;0.05342751795631423;151.0;0.22237571502119852;0.351406967497394;0.12387226325560753;163.0;0.25104951852768603
0.007192593943350201;5.189184111505143e-05;152.0;0.058504239963225776;12.0;0.15994186637818786;0.02565079569157157;155.0;0.2336803979201496;0.16349783725320496;0.02679866847330759;152.0;0.23105081836833058;0.15216702016758224;0.02321309975222962;154.0;0.2166825737022608;0.15049200936246934;0.022706491962576802;150.0;0.209215916414404;0.1562452609841527;0.024478172396119567;158.0;0.20941510447365277;0.17258109840953453;0.029870271573968852;163.0;0.22081456375848257;0.15699289801920924;0.024714912461615914;163.0;0.22237319373595915;0.5053662763214063;0.25620966467118084;135.0;0.3352430096418475;0.43050672162882464;0.18591609302849701;140.0;0.3135536951071857;0.34312953400130847;0.11809244035883995;148.0;0.28601291397517875;0.29581808468808257;0.08776750897703525;153.0;0.2674084039628913;0.23324160301258823;0.054570321457135564;155.0;0.24556225558296588;0.19764963940155011;0.039188104649527454;149.0;0.23683435874718503;0.16484817707841504;0.02725768141608359;154.0;0.22816574784408591;0.008056418887536297;6.511699656025045e-05;156.0;0.06720315841196395;0.1591095770045118;0.02539161567958277;143.0;0.21160933481994884;0.16278443260804737;0.02657908009112744;148.0;0.20749322533803036;0.17592514730416464;0.031045397681421772;152.0;0.21166768539263547;0.1987031171370005;0.039609943153373024;156.0;0.22441984121669878;0.2112652147293199;0.044777942784126896;153.0;0.23191424618636056;0.18927918315818332;0.03594294610233052;154.0;0.21839142781313203;0.17034554380472702;0.029103950419857402;153.0;0.20400581322850417;0.15814481619277992;0.02508155748215238;148.0;0.21600120361170874;0.42551463016536234;0.18154333927196875;149.0;0.2905351855081417;0.4141276831213712;0.17202924721774024;138.0;0.2873964190756642;0.39082028952932424;0.1531973686059166;142.0;0.28028226673380396;0.2502054227247414;0.06278810850012742;138.0;0.23233216038379728;0.2494433798848702;0.06241164324313265;138.0;0.23179869131729255;0.2513699423095481;0.06337438649029233;137.0;0.23245547891245885;0.2504897815359873;0.06293002248542633;136.0;0.23236801805817095;0.35849225836198273;0.12879549522393968;150.0;0.2644383769335315
2.076322081141615;4.325338462213094;150.0;0.42714099040735604;12.0;0.12989701487646518;0.016914445618897007;143.0;0.21406483398188794;0.13247693946039774;0.0175918123272077;143.0;0.2112249265092079;0.13080089761122435;0.01715194801725273;139.0;0.20256666685852207;0.13364982231228947;0.01790925644629951;139.0;0.19751147764538485;0.14090683767912726;0.019911096915926286;149.0;0.19769059618888238;0.15784429663779298;0.024990517773161646;163.0;0.20855293411026082;0.1434908197204639;0.02061940174216828;165.0;0.21361763388426516;0.42808063093323423;0.18363532931457793;141.0;0.32165561380646396;0.36466496040360247;0.13323031547543873;141.0;0.2995645526016961;0.29481868767019026;0.08709855390332535;143.0;0.2735120945807364;0.25780527676002485;0.06656492317670908;142.0;0.25605247770815714;0.2114153341029918;0.04476669197241703;145.0;0.24106681767541102;0.18398957091338225;0.03390230715446764;149.0;0.2329837315917729;0.15269984812024726;0.023362598889872813;157.0;0.21955359312039383;0.0073463939956278645;5.411249856767801e-05;147.0;0.06541788027772684;0.1361236498774382;0.01859025063829413;145.0;0.196108521304696;0.1408837193406941;0.019914069679238464;146.0;0.1949592895311709;0.15474140993329907;0.024020814948708842;152.0;0.20221251780560498;0.17874838302153007;0.03205653523385697;151.0;0.21722297417423692;0.188781035914143;0.03575412565018329;148.0;0.22410720464658143;0.1616864081909425;0.026229727853303842;150.0;0.20813056631362095;0.13699390371792988;0.01882942471432786;156.0;0.1929595210527532;0.1347802177833294;0.018224476511744116;155.0;0.20138391660923094;0.3563566079862735;0.12723088685845874;142.0;0.2799241264528252;0.3396960329022052;0.11564244326161571;135.0;0.2740938364845964;0.3214499376493036;0.10358585784021776;137.0;0.2687134159632395;0.20832563403628113;0.0435264227828256;137.0;0.22834995398118357;0.2075850128401843;0.04321398949074462;136.0;0.22802096225383217;0.20913436621381393;0.04386936870899757;137.0;0.22858149433380984;0.20835832236395013;0.043543459038469665;136.0;0.22832137835805058;0.2823317275831366;0.07989771745976221;135.0;0.25403635389455154
2.3602764634636513;5.5865277676327985;148.0;0.4803445761607364;12.0;0.11565903378497588;0.013383376957496175;154.0;0.1978629488807112;0.11359826783261699;0.012906792029720095;154.0;0.19520753526139362;0.11394380255403957;0.012986713366393392;145.0;0.18924062825471774;0.1205174708377766;0.014530913281562925;136.0;0.18820967912482503;0.13602359283943186;0.01851974417539547;140.0;0.19553626011891653;0.16746763770774323;0.02809007155256854;155.0;0.2135979214157391;0.11420544382048747;0.013049176366415782;160.0;0.19633649853665472;0.3329478250602698;0.11121156988565468;154.0;0.30892970610413284;0.2824351583036329;0.08002612358545746;154.0;0.2865190524732663;0.21961138246679346;0.04838177639556099;152.0;0.2575482454233563;0.18818895510915246;0.03550746621527646;147.0;0.23821996315605956;0.15344165730857076;0.023603082589146063;152.0;0.22462629670978052;0.13730493873327815;0.018896189970773192;155.0;0.2178597757956406;0.12248274832647238;0.015031989396095376;163.0;0.2052886864237796;0.007425125229776689;5.519850125566188e-05;156.0;0.06562206439451798;0.11699966621301264;0.013731799803735347;152.0;0.18545893122434598;0.12324467026135143;0.01523068283637072;152.0;0.18457136134758156;0.1385393205717266;0.01925312620272967;152.0;0.19242104900406093;0.16388759705129194;0.02694383009274829;153.0;0.20730185339290783;0.17830448874549268;0.03189451080868576;148.0;0.21699262040804648;0.15419108244264504;0.02384996869287673;150.0;0.20688479644054522;0.12476282389489535;0.015605654810423414;155.0;0.19249396806078123;0.1141435535285138;0.01306941769253936;154.0;0.1922313899244098;0.30273809745041785;0.09176092459908769;139.0;0.26324688730566187;0.26550122071907545;0.0705597313179487;135.0;0.25696830769685153;0.235719893611922;0.055610122698798684;134.0;0.25023502821930993;0.15210612148377958;0.023148724339343955;143.0;0.21341246222874216;0.1516146013133637;0.023003928505336158;143.0;0.21307644466882897;0.1527232792532852;0.023344589553833624;143.0;0.2139398938797498;0.15201513422727833;0.023124533004044732;142.0;0.21339872337519175;0.24579463729391032;0.060490301725988974;140.0;0.2368029600299589
1.1558122305716947;1.340257468927166;155.0;0.25992562277508874;12.0;0.09055085437500553;0.008225943467594492;179.0;0.1386682674052496;0.08734165563237853;0.0076520901129629;174.0;0.13514772404956787;0.08716141086370413;0.007618641343508781;167.0;0.131471401355597;0.09271435695437268;0.008620522507807265;158.0;0.13299778221367659;0.10653904576067176;0.011383032391158718;154.0;0.14154297902942475;0.1340026786919563;0.018011183603624633;152.0;0.15886106848732365;0.08696384904736305;0.007580195698436373;162.0;0.14015618183155124;0.26240166654745206;0.0690744696853856;170.0;0.2335004487044674;0.225307551854207;0.050917552217381465;171.0;0.21916499505912482;0.1788089559430528;0.032070617416091546;168.0;0.19673912883639957;0.15569878790965694;0.024317622811209923;172.0;0.1827574806709006;0.12547726033951234;0.015793057687848465;171.0;0.1697154958993652;0.10756136244123757;0.011602744472177955;167.0;0.16094867123565318;0.09379118224640796;0.008821419077480247;171.0;0.14906195254860136;0.006895242891832806;4.766535126263202e-05;159.0;0.06498794703632171;0.07343549439611538;0.005396995817920651;130.0;0.1376445829411204;0.07549616509987121;0.005702795841632459;137.0;0.13625738407349847;0.08311935238350776;0.006913695699735709;130.0;0.1411115052063128;0.0983907894156944;0.009695652656789525;135.0;0.14988183863303356;0.11161378600165502;0.012476809013432753;138.0;0.15722256404915264;0.1016416765805211;0.010355184163352371;140.0;0.1549142203353669;0.08495993920588207;0.007235362374178209;142.0;0.14677378927949405;0.07063788236209662;0.0049861997733366675;125.0;0.13971156661362968;0.2150232505407038;0.04638289786645875;140.0;0.2014859683547414;0.1891002779204434;0.03587558989777109;138.0;0.1961905220373747;0.16527875969326522;0.02740554642266578;140.0;0.18807424994379562;0.10210635541720858;0.010454851225716471;123.0;0.15667204198571769;0.10166155261565063;0.010363955481015283;124.0;0.15660485764874024;0.1027802541240134;0.010594658449209692;125.0;0.15733651517119568;0.10233378329777991;0.010499887463465635;122.0;0.15702461745714194;0.17692807431726948;0.03139653751209094;135.0;0.17833579288542417
0.3776267131157416;0.14024896793324915;165.0;0.1660851316975294;12.0;0.038625182365494094;0.0014882665631130226;159.0;0.08246029788340387;0.041066733993832004;0.0016864890418073464;162.0;0.08489069600992549;0.042452100604199586;0.0018023198493270403;157.0;0.08546184213573846;0.045037772106953436;0.002029477309346926;161.0;0.08829373673683424;0.04767866981031202;0.0022750020405238832;158.0;0.09229250637223156;0.051339083569267724;0.002640588781382587;156.0;0.0992464010601654;0.04047167612078652;0.0016368641815082217;148.0;0.08512337861542689;0.11452851705867881;0.013112127228926983;164.0;0.10973469177091871;0.09604887973783528;0.009223138659451001;158.0;0.1074128266283073;0.07908715675208267;0.006254279207294383;157.0;0.10539324316738652;0.07343500241252462;0.005388675232345898;162.0;0.10329235874940969;0.0633974872617017;0.004011612319387295;160.0;0.0990948273740974;0.05251600419842721;0.0027549501556678483;162.0;0.09374743509516402;0.04166637868389785;0.0017370864712479446;159.0;0.08829345796918224;0.007079547916308325;5.018436186382251e-05;147.0;0.0639292219291996;0.03921787010426323;0.0015413194774623164;155.0;0.09179092739598653;0.04146134282386376;0.001721981362494082;157.0;0.09358310638729615;0.042488431441504035;0.0018080357880726435;150.0;0.09519617038059096;0.0439989745442526;0.0019383039849956093;149.0;0.09676324266291038;0.043313147328473335;0.0018778454039630446;154.0;0.0960740537164237;0.03989103662097085;0.0015912022155578258;162.0;0.09228815436049885;0.03644922512360373;0.001328496982410234;166.0;0.08860685148810299;0.03439968362867734;0.0011863267445370422;148.0;0.08820544427983225;0.06590216766805576;0.004357202052864983;152.0;0.10226662542554317;0.05709935471219515;0.0032710139203713413;145.0;0.10243279031129554;0.050425780539954;0.00254732388570163;153.0;0.10163062670393824;0.03999259849918366;0.001604433855565306;145.0;0.09341089011629987;0.03994575146058138;0.0016007007616768972;145.0;0.09374356915190703;0.04027812302093979;0.0016272276868373719;147.0;0.09346234428164546;0.0403444872025556;0.0016328134730546335;146.0;0.09354421742658163;0.06199245608919007;0.0038548219525122705;146.0;0.09590252558057295
0.15675362077803162;0.024566034827407098;159.0;0.12902724846497;12.0;0.05718464756463266;0.003279954367842847;141.0;0.13063339317167832;0.06074022081464015;0.003700677748784277;143.0;0.1338243252476289;0.061062524949508735;0.0037401884248420324;148.0;0.12350782130286865;0.06777830883197206;0.004608964456553244;153.0;0.12514662560323403;0.07208800812234974;0.005213779544147706;155.0;0.12857085861914552;0.07533475787463934;0.005693928922640491;159.0;0.13633698180306159;0.055071787863508935;0.0030388593750236776;144.0;0.125780213818681;0.10861278470585041;0.011830031177903277;153.0;0.14479032371865605;0.12418473836745979;0.015468761852808561;146.0;0.1599573979936672;0.12802231754698304;0.016443304703204962;150.0;0.1678539829308237;0.11559271790892342;0.013405146096591049;151.0;0.16279947793417193;0.08884556571829132;0.00791920347105529;153.0;0.1526549359060086;0.07772138558966386;0.00605896521961954;154.0;0.14123457398340486;0.06177558378219305;0.003825984686817944;152.0;0.12709238965497213;0.006966095613301422;4.868006161026392e-05;161.0;0.06107800483885262;0.08647033410612186;0.007493445841677071;168.0;0.1515926465356958;0.08415001815309756;0.0070986517545970716;162.0;0.15024093713518452;0.08463940970055152;0.007179234693652054;162.0;0.15069987985718117;0.0954204140664615;0.009116513572278566;161.0;0.15658552842871393;0.09406766322983484;0.008854591888414162;155.0;0.15665180210489577;0.07223891067717875;0.005226609059991636;164.0;0.14780828442466046;0.057836381650523655;0.0033553336155848408;163.0;0.1395599083109116;0.0745018788613877;0.0055631334268455524;165.0;0.1415350302376688;0.15582464598652096;0.024297527084555695;161.0;0.17927250097053427;0.14672396943014;0.021538765535340575;159.0;0.1814629440448751;0.1286454353483048;0.016561444863804852;163.0;0.1776183641025082;0.08105196525868494;0.006584582511685805;176.0;0.1482489384260428;0.08079797680603214;0.006543716147609046;176.0;0.1480103139006857;0.08142618022687585;0.006645809681206869;176.0;0.14818267798495943;0.08116804724991078;0.006604234543286511;178.0;0.14757335119931297;0.1311813269372433;0.017242315405511757;164.0;0.16679376043699065
0.09134530049212108;0.008371227049683337;151.0;0.10666421569161176;12.0;0.09925523545526292;0.009883419662688978;155.0;0.17680362279005268;0.09764799053017409;0.00956624718781407;145.0;0.17722278755387716;0.08459577804796603;0.007179422116391126;160.0;0.15779653909199037;0.08751496615213045;0.007683782721892975;163.0;0.15232809447485116;0.09338432615572892;0.008748202527502805;163.0;0.15618236015106185;0.10035055158224084;0.010099509665050877;159.0;0.1661300175076294;0.08796952035752001;0.007760861974479276;166.0;0.16115751245447232;0.1976397301174849;0.0391656788588922;150.0;0.20669620938632272;0.19173027539010534;0.0368659849160645;153.0;0.21083736438596912;0.1771531758838807;0.03147731590779887;160.0;0.2095724315804481;0.16234264397382367;0.026438815167108477;159.0;0.20259652178880583;0.1362874122886691;0.018634656966573914;162.0;0.1922398195508601;0.11964996642603014;0.014361057967643764;154.0;0.18197595315996343;0.09622100645340041;0.009285795032346668;159.0;0.16418965713211134;0.0071034104866612244;5.059191162306319e-05;167.0;0.06248821423764184;0.13105989972466622;0.017221282502778983;161.0;0.19825844642997728;0.1300387698077488;0.016955865697535957;160.0;0.19538168772689826;0.13326550796508405;0.017811969765655435;158.0;0.19669728735965347;0.1492901552687994;0.02235821031416697;162.0;0.2052088427920916;0.15237075335265407;0.0232920152002476;161.0;0.20640267376295166;0.12679272909920222;0.01612527629856724;156.0;0.1959850903582066;0.10652106661109764;0.011378365768665506;150.0;0.18462831296717488;0.122384036265301;0.015009664217644275;159.0;0.19185964585525667;0.2707449557228236;0.0733597576082108;163.0;0.25704314548025176;0.2565716003086583;0.06587225515936386;164.0;0.25575689256196615;0.2262528314710623;0.0512573500219369;161.0;0.24464320333137735;0.14901730971771174;0.02222244004104031;168.0;0.203552699290266;0.14876329259132148;0.02214801203372044;169.0;0.20351602253388998;0.14964251308644264;0.022415450868918416;167.0;0.20383942628355053;0.14911536811673554;0.02225931399954089;169.0;0.20326905536280962;0.20815987367565109;0.04338598994497463;168.0;0.22722402787414342
0.05722968122223047;0.003275465110649842;148.0;0.08844241983382926;12.0;0.11411329282831033;0.013055058768669938;154.0;0.18871914174059531;0.11333061060848124;0.012879738972878713;149.0;0.18878523349443752;0.10044736754121034;0.010109868171311095;158.0;0.17582622316151852;0.09927255745057302;0.009867280960901285;158.0;0.1689221426928541;0.10240380640182685;0.010494619356494084;146.0;0.17427044473183737;0.10961582826313297;0.012023339022029575;148.0;0.18502929228592646;0.11834071947294654;0.01404046610160903;159.0;0.18068627426809472;0.30587791284588095;0.09380130161160469;138.0;0.26305311770020723;0.25668062186743057;0.06606599615806978;143.0;0.24671885702462046;0.20561966805774268;0.04237887448024893;144.0;0.22606883463638577;0.1850382015392839;0.034306698837611276;143.0;0.21655263626980578;0.1657559948534396;0.027536262764190116;146.0;0.2082214175834512;0.1508436334930278;0.022807866353930357;147.0;0.1980815327771196;0.12563703526054923;0.015819043001183343;154.0;0.18328197892169093;0.007294614254010192;5.3385176273900795e-05;153.0;0.06337799601886356;0.13196231655631177;0.017460272509445547;160.0;0.20000829023196984;0.13540477090088193;0.01838223090319885;166.0;0.19990096596225296;0.1449507655753124;0.021054829284986223;164.0;0.20560012365319905;0.16599686865433516;0.027600728226043123;170.0;0.21658015444308326;0.17478825412677929;0.03059182868875368;172.0;0.22060631233348094;0.15064469046684978;0.02272989601412471;159.0;0.20989221965779534;0.12957007872290707;0.016826206421046163;159.0;0.19848390815970227;0.12736150064563925;0.01626278196910312;157.0;0.19810406568811267;0.30254893923507425;0.09179229769618655;156.0;0.278691045461712;0.276944762098107;0.0768800738436543;144.0;0.2686240051206802;0.24302195943820418;0.05919285810367834;143.0;0.25657144301900714;0.17132872431888665;0.02944490706261758;160.0;0.21894120124343466;0.17125956669994258;0.029421772063625257;162.0;0.2194539222972619;0.1722120333470031;0.029750837934694595;161.0;0.2197997379383728;0.1716603549633175;0.029558429981344166;161.0;0.21940274120783654;0.24110753611918398;0.05832243546285231;167.0;0.24842668730697454
0.038645246644484245;0.0014933113837446667;160.0;0.07365287240470264;12.0;0.11023286949128924;0.012186762583311547;142.0;0.18489247653414753;0.10848004661592714;0.011805499431971121;147.0;0.1858904670559565;0.1012228070978624;0.010279548481971603;150.0;0.17687561082151645;0.09945047973446636;0.009922438395159569;145.0;0.17250163665419527;0.10126778005295539;0.010287918972225323;142.0;0.17651217508455555;0.11014985188204073;0.012172521135362532;144.0;0.18945856343114562;0.12629567893207347;0.01599618718188055;147.0;0.1894585785296277;0.35015565334887266;0.12298480017499305;147.0;0.2975258028088912;0.28745767561309116;0.0828873628807404;147.0;0.2733511346772295;0.22413661741600363;0.05038939693647869;143.0;0.24667161410894686;0.19484551131346506;0.0380808189051941;145.0;0.23176651329148007;0.17323923958732557;0.030101755990201547;151.0;0.2219583604902479;0.16239512670784825;0.026447972995812426;149.0;0.21131317140396386;0.13724985612849255;0.01888710790510408;150.0;0.19559478158998886;0.007760823286104803;6.04245840715829e-05;146.0;0.06651633857369234;0.11780438320548822;0.01387326170997487;147.0;0.19279915803058925;0.12351454262086153;0.015263061146929931;152.0;0.19484458523880363;0.13785331693461972;0.019031640660990404;156.0;0.20370245403661794;0.16722017285753868;0.028026843558591773;160.0;0.21898400213113878;0.18477836933711686;0.034221700220340184;162.0;0.2288351227745913;0.15962311146267535;0.025531999584464976;154.0;0.21690549603966058;0.135107685837299;0.018289563624235856;153.0;0.20187763005692785;0.11332317016772486;0.012841514279430099;148.0;0.19149932336687459;0.3324870430758856;0.110778569571096;155.0;0.2913090314039008;0.2793500623572107;0.07814087469830638;148.0;0.2723369364536846;0.2362053250520192;0.0558298217247941;144.0;0.2588763573998028;0.16479879042554033;0.02717198435689162;157.0;0.2210981536941697;0.1648435638192006;0.027184544886970412;159.0;0.22144957133928922;0.16585032595641436;0.027528246609231713;159.0;0.22205986491662072;0.16518799982600754;0.02729779797978941;158.0;0.22146132832537377;0.2783367847407443;0.07764779137114726;158.0;0.26749900858058007
0.025639740201880055;0.0006587198992425936;160.0;0.06117973841630767;12.0;0.10719717258534363;0.011477547013089014;143.0;0.17681966731479787;0.10001267272552844;0.010000205518088398;148.0;0.17461624192096895;0.09355697487208015;0.00874478551909771;154.0;0.16531453385019;0.09594427190602967;0.009194260747872027;146.0;0.16500959829881778;0.10381086184067026;0.010766474062052347;150.0;0.17223904742695662;0.12032239135895391;0.014485684926741894;146.0;0.19039948527453218;0.12635538989288722;0.015964954102121114;155.0;0.1878202874764356;0.3288169496646943;0.10825447392433422;154.0;0.2867341014607158;0.27641761416335986;0.07648989523918429;154.0;0.26207985167318554;0.22514952957945536;0.05071693746078442;153.0;0.24039479184022272;0.20013292454887383;0.04003591661278647;158.0;0.22781711502870808;0.17883259638961446;0.03196565723630327;162.0;0.21966773687388116;0.17086740780464343;0.029180562752573653;157.0;0.21245208776534477;0.14523606782157483;0.021081294130988183;150.0;0.19696433430925736;0.007898976605470117;6.259848544008617e-05;150.0;0.06637879803961896;0.10392182667720429;0.010835074470106362;154.0;0.18582982362961786;0.10934602231882118;0.011995594809602782;151.0;0.18613587910078533;0.12407116123541434;0.015444014110180471;157.0;0.19392868544941466;0.15712120775448601;0.024767443986943766;163.0;0.21243944092316125;0.17981743301738914;0.03243670360616709;168.0;0.22480225045294888;0.15290440340109904;0.023451908715534386;162.0;0.21112519548985204;0.12420576044883157;0.0154769297145546;152.0;0.19507468803725525;0.09844893108337618;0.0097233881492521;157.0;0.18475928783352663;0.31018437443295693;0.09650340870513556;152.0;0.27889289627741254;0.2671584014783638;0.07157936021925014;147.0;0.2662498964001573;0.24080658819466075;0.05815840429348776;154.0;0.2591489691459897;0.15676001975921394;0.02463073020380499;158.0;0.21853664863620006;0.15671536354754464;0.024618722577348377;158.0;0.2184616162954653;0.15771951779253576;0.024933499160378153;159.0;0.2190439610750923;0.1569699246373845;0.02470156490764275;158.0;0.21849918370665314;0.2457918504670008;0.06059963385530559;154.0;0.2427898478058319
0.017431634216985854;0.00030433968277369955;151.0;0.04886366161019066;12.0;0.09277234369204033;0.008634906905733585;149.0;0.16495838795865342;0.08635148286062033;0.007480413312086707;153.0;0.16120505358611806;0.08250828035093671;0.0068278482834183704;152.0;0.15503462752645145;0.08681225298685112;0.007557112497787639;144.0;0.1554462853037837;0.09624030139277515;0.009286797217671693;136.0;0.16304019798596409;0.1136733385683656;0.012957029901209415;131.0;0.17964159149264902;0.1161234220178632;0.013528312584815651;157.0;0.17770733499638072;0.3113235044245225;0.09722595430179463;143.0;0.26331796701756705;0.2655383712939611;0.070733347312527;145.0;0.2427042797672912;0.21908187148283154;0.0481487956013199;150.0;0.22443322776223779;0.19565185132036697;0.03840472893021733;154.0;0.21401631384606776;0.1704842235594113;0.02915985336084256;156.0;0.20374062381314534;0.1582912976587921;0.025137950376426275;153.0;0.19566473096646667;0.1337616140978769;0.01795065828392972;144.0;0.18241179803658358;0.007131097084406864;5.101860596870142e-05;162.0;0.06308230274230062;0.10214464994556482;0.010464409897636232;145.0;0.178578749843845;0.11102385750293987;0.012363293941286829;143.0;0.1817591113973249;0.12163001496644218;0.014839368164722007;143.0;0.18800047821761848;0.14348858922842642;0.02065405763810395;154.0;0.20209794087840388;0.15884139929119903;0.025312442945734225;154.0;0.2116078753536555;0.13425411901099593;0.01808073721290537;148.0;0.20122506599260967;0.10881728910490925;0.01187782851659097;140.0;0.18957720218595073;0.09149933665681573;0.008395398189149604;152.0;0.1745963352244658;0.2654467048790574;0.0705991616421991;146.0;0.2599286959360166;0.24072919579016389;0.05806569263958394;141.0;0.24739870537368294;0.2363439035437682;0.055976071539420094;154.0;0.24468302165118858;0.15221365988042657;0.023229655225073524;153.0;0.2073866962950711;0.1518855442198193;0.023131834161831975;154.0;0.20763248554262873;0.15287741009946607;0.023430631113649143;155.0;0.20762039490412307;0.1522100795227271;0.023223919662214963;154.0;0.20738318806581865;0.19702846327805273;0.038898186793429344;152.0;0.22076907366438664
0.011604552821159653;0.00013480763754635008;149.0;0.040167040199847785;12.0;0.08556321604492811;0.007333738554058404;148.0;0.16725269512104848;0.08507072194528073;0.007247041420255966;153.0;0.1666744511973809;0.08027892223500459;0.00645164389282391;151.0;0.15932045419741264;0.08269746415011908;0.006844719144989814;146.0;0.15678226442018453;0.09377654537985788;0.008799224484834754;134.0;0.16248423661373954;0.1141713556206594;0.013045355887851842;129.0;0.17682314458399054;0.09316106766410111;0.008698603012119815;157.0;0.1689300285632063;0.28927870790681265;0.08379450723005145;142.0;0.2599494207587755;0.24374029746429124;0.05950349034913268;146.0;0.23748736889379737;0.19390749812622882;0.03764236917482636;160.0;0.21732986728475007;0.17079539018643136;0.029224679584514447;163.0;0.20803210983526801;0.14423675236046926;0.02084087257386409;165.0;0.19915384430997662;0.12598906246372996;0.015901675245416805;157.0;0.18919222562261342;0.10398665463523371;0.010834062754426048;145.0;0.17304064517748466;0.006663722164302642;4.4499486035259554e-05;156.0;0.06490434241475601;0.13195070044640347;0.01746727410729154;142.0;0.19854834707758967;0.14018550006642871;0.019715747916629212;146.0;0.20291107573533873;0.14984670434230693;0.022526265311355823;140.0;0.20941537390120418;0.16324035650042962;0.0267339368757738;143.0;0.21993127330620627;0.17017794974576028;0.029055454305144925;137.0;0.22535227996231977;0.14985670302340182;0.0225302125275076;140.0;0.2146610529299563;0.12790824904066483;0.01641126917206343;142.0;0.20130624387371074;0.11985759777293595;0.014410898084058281;144.0;0.19346084353979573;0.356731986165476;0.12767109789673017;144.0;0.27093491198255826;0.3251555213581108;0.10606982087524638;144.0;0.25810451458592715;0.300687677418322;0.09070134770169493;148.0;0.25168854869942864;0.18317949645969048;0.033649737532734314;143.0;0.21643820623114124;0.18259799678479816;0.03343749402161489;145.0;0.2165100098773999;0.1841498571705776;0.03400651413673382;145.0;0.21705926855091778;0.18330005668569552;0.0336940916397701;146.0;0.21670350365204158;0.26825996442162975;0.07217988183863727;142.0;0.23893880501603645
0.007993237834945145;6.401113208208895e-05;160.0;0.034199145841577724;12.0;0.10065835513126048;0.01016278839590972;150.0;0.17211816160960158;0.09956654088194374;0.009944341440949082;151.0;0.17155248811722373;0.09869318685975814;0.009770832166623581;157.0;0.16674631514410362;0.10537115820837664;0.011136569114455859;155.0;0.16651287975456316;0.12000831966321275;0.014444990697016628;146.0;0.17402669783125915;0.14529305024561573;0.021168527540907086;143.0;0.188814323624461;0.1106282663024162;0.012274857526609093;151.0;0.1730598869453087;0.40464182772812224;0.16425526647379976;159.0;0.2977096653870943;0.3304297041284165;0.1095364872845194;161.0;0.26834198445903973;0.2458132011448142;0.06062086257267367;168.0;0.23741984189244272;0.2082222584927238;0.043498067158191336;171.0;0.22342902936251044;0.16890145630625786;0.028620255527425486;168.0;0.20989187316273739;0.1483079740011716;0.02206268840629119;162.0;0.1988955474517385;0.12382595525704758;0.015377050858576902;149.0;0.18090442697900674;0.007621850890722808;5.825871004380369e-05;163.0;0.06974822155319847;0.12698937973737348;0.016177133884152456;152.0;0.19666235212429256;0.13275251806714802;0.017676629629129054;155.0;0.19847735071867573;0.14137025527216693;0.020047890863070593;151.0;0.20367230738015954;0.15322147730020996;0.02355324974402241;146.0;0.2145608788571476;0.1607758018378002;0.025932358297356104;144.0;0.22024985869305413;0.1432537188181428;0.020587715231150272;146.0;0.2089983266068355;0.12356171266803603;0.015313418211396099;154.0;0.19635239145346722;0.11792640405953782;0.013951475880503163;145.0;0.19280870254836271;0.3268778984576612;0.10712531068633478;151.0;0.2540786883040822;0.3132445459113359;0.0983856309725458;149.0;0.25343971620859396;0.2899188673897207;0.0842812870923518;151.0;0.2521066575882599;0.1718926677397172;0.0296313790871357;147.0;0.21770803375313766;0.17155624276762907;0.029516605937907378;149.0;0.2172559585829731;0.17298784672925444;0.030009945148987863;148.0;0.2182582424131005;0.17217769146905887;0.029728123109481787;149.0;0.21802327273148883;0.24470055875843202;0.060034905690467905;144.0;0.22921607737261424
0.006672330435311294;4.453516450881884e-05;157.0;0.048628077367282654;12.0;0.08060197854110157;0.0065168875237771005;158.0;0.13014483234439253;0.0773691801887094;0.006004050089468833;161.0;0.12800893331383204;0.07865540575899177;0.006203930940181033;164.0;0.12624559494682824;0.08453320784061294;0.00716337694102176;166.0;0.1277782595240253;0.09517267895360124;0.009076907145139868;157.0;0.13346460378765607;0.11400755673665078;0.013019306905020291;140.0;0.14399660460503583;0.09279949963684928;0.008639326192330248;149.0;0.13340266459320527;0.36394891511234884;0.1328651346691731;156.0;0.24277280283976158;0.29494680412546037;0.08726294831321428;157.0;0.21956884243229147;0.21458261644374088;0.046193465334030154;149.0;0.19195340738059585;0.17776263612133428;0.03170204876545508;144.0;0.1769438158608529;0.14172511351507955;0.02015162557062598;142.0;0.16209851059508654;0.12431463492887299;0.015504644568830902;141.0;0.15362120778766625;0.1037066735430058;0.010789916988169553;143.0;0.14111604249138002;0.008003452550021425;6.422059807558087e-05;162.0;0.06913237461170922;0.07746860933897358;0.006021003553523442;143.0;0.13395578332303795;0.08258402176494103;0.0068423857954363785;151.0;0.13579841771216672;0.08607117377411551;0.007432212765235985;152.0;0.13886396875860227;0.09035957588573935;0.008189984829553134;147.0;0.14410522578728616;0.09677235297198586;0.009394047718952138;145.0;0.14868829723555618;0.08775333217160942;0.007724772645215442;130.0;0.14374033354501986;0.07701000949930331;0.005949787114145579;132.0;0.13681685300575208;0.07365610556383652;0.005442753715729161;139.0;0.1319007270027036;0.16060327355523807;0.02584306155820415;168.0;0.17222900756176202;0.16567276248122365;0.02752984060928577;173.0;0.1757729894492813;0.15788162623905377;0.02500621434079256;167.0;0.17687391287650484;0.09671239830472161;0.00938378218911829;163.0;0.15477576560744258;0.09659999021166796;0.0093617403393465;161.0;0.15419001545541927;0.09710928254840068;0.009460747955097184;162.0;0.15472739276598055;0.09681751488212306;0.009403990185673883;163.0;0.15488933562677906;0.12237219970284174;0.01500818061234474;137.0;0.15961750788268766
0.007045541714121756;4.9777263549977036e-05;139.0;0.05969919690353031;12.0;0.016167990164075507;0.0002615395599058336;167.0;0.06342825969513043;0.01623475873206149;0.0002635911526010141;170.0;0.06294627300407783;0.01706767827076065;0.000291150941109888;175.0;0.0632141177739207;0.018279858585985593;0.00033434468096030245;175.0;0.06613271259356193;0.02008432921206863;0.0004037981048279129;166.0;0.06859778479691375;0.022188404243026323;0.0004932831016104148;144.0;0.07248017011970583;0.016251904070511438;0.00026466381017391255;161.0;0.0630122540033542;0.07777647125532859;0.005992859981539511;146.0;0.08369065625111133;0.06328753799445697;0.003964102022630709;143.0;0.08030421681822217;0.043468079896452703;0.0018761395243973328;143.0;0.07534436888469097;0.03492331955143111;0.001213170669050253;141.0;0.07269786815713944;0.027297125679410734;0.0007447832242992698;145.0;0.07067761596654357;0.023612292050119044;0.0005585155248273631;149.0;0.07142823108599772;0.01894969145667621;0.00035978987100384507;155.0;0.06742593386008328;0.00752983511218568;5.679696740976821e-05;144.0;0.06596757329787628;0.02342006317909281;0.0005498820793869235;140.0;0.06539077414478102;0.026008313045828853;0.0006781463707389053;143.0;0.06811328120446342;0.02828418364195222;0.0008014721221208653;146.0;0.06864261234662404;0.02936340461615134;0.0008633232125510107;147.0;0.06950309833862235;0.02958770681268898;0.0008758464432668493;144.0;0.06826219383632848;0.02716682282357868;0.0007376272968666826;132.0;0.06931083599127667;0.023988176756476933;0.0005759221239553914;132.0;0.0664738993258458;0.020581930450019395;0.0004242221897718948;137.0;0.0639637143938435;0.028965654975445326;0.0008398058371301148;172.0;0.07145992294554206;0.02923315901466154;0.000849063866054063;170.0;0.06946315319362768;0.02733136173421125;0.0007428573409971178;158.0;0.06656437867191363;0.019741137474632076;0.0003885771342739419;162.0;0.06363320893738802;0.01931111999651583;0.00037233505438316226;158.0;0.06409988169230796;0.019311882821685732;0.0003717702637895907;159.0;0.06321206980485905;0.01967645887804897;0.0003863821940653757;156.0;0.06421638414282939;0.025188098506262694;0.0006353954997116427;148.0;0.06602295266287755
0.006783592598311074;4.611802138663546e-05;135.0;0.058497056797258355;12.0;0.03237527407963406;0.0010471563779855966;174.0;0.09164858531948293;0.029485228273571595;0.0008681197706801556;163.0;0.09003166531324812;0.027140266326980737;0.0007359491577939008;168.0;0.08763462386476376;0.02674155330484151;0.0007146933435580028;166.0;0.08850060936847139;0.027132842104243108;0.0007356809128647489;167.0;0.08991213491435751;0.027303966697100834;0.0007447992508235129;158.0;0.0921116645375279;0.03716396998368282;0.0013834247800555378;176.0;0.09074498396213229;0.05633825516235791;0.003168569962188829;164.0;0.10292505773429406;0.05297763935204188;0.0028054292243358376;160.0;0.10180820468521706;0.04982264782373482;0.0024846852334623965;166.0;0.0998271293575226;0.04839828187092751;0.002346273977085389;171.0;0.0993725270586103;0.04957918253079912;0.002463660879280934;181.0;0.09996698461808703;0.05038892815930287;0.0025454425196344004;184.0;0.10096740093921122;0.04201460933185998;0.0017688867397108426;186.0;0.09512847109933081;0.006814550322189864;4.658306485725089e-05;154.0;0.06356721405402031;0.04695875193627717;0.002191056161669735;148.0;0.08821288835657941;0.049318207930953484;0.0024144830916876863;149.0;0.09014569287758416;0.05144008694570602;0.0026279856806796058;149.0;0.09034533010648463;0.052400640530415724;0.0027279142092316517;150.0;0.09194890505652048;0.05185061906716208;0.0026694477549424815;152.0;0.09296687794434637;0.05180203741368781;0.0026624990329952125;151.0;0.09497300891500172;0.05303133842028639;0.0027893547779958105;155.0;0.09472599533121046;0.045852322268954665;0.002089220629868738;143.0;0.0867553193183105;0.20647127385768893;0.0424425189088459;158.0;0.15873271001144357;0.18387291833601058;0.03362969841472376;145.0;0.1508324477414295;0.1595540323644683;0.02534401331094826;137.0;0.1358016701617565;0.08933733026259418;0.0079387167922714;143.0;0.10290487948551559;0.08907064429266277;0.007892713379674494;141.0;0.10312959723910195;0.0898445803652656;0.00803134283054909;142.0;0.10329027029726816;0.08965959446302647;0.007997298401184998;140.0;0.10314924873178195;0.18386545129687107;0.03365747504706134;158.0;0.14189920013067173
0.006688424745036042;4.4874571410018935e-05;154.0;0.05922544598825345;12.0;0.057326568873886534;0.003296771797424885;170.0;0.12402539231947228;0.05594536700939457;0.003140073451189334;158.0;0.12414761278662793;0.045247596069111724;0.0020540201881300846;166.0;0.11503150940355698;0.0413335923404488;0.0017140477965665922;153.0;0.11095935751604936;0.044155711920428053;0.0019561443286750376;147.0;0.1128279799889357;0.04805701726612268;0.002317314857155598;150.0;0.11737151623267246;0.0563199357635653;0.0031819524354496963;174.0;0.11938443207532157;0.14000464646251282;0.019655910030452577;151.0;0.16155414784008498;0.12377589384175794;0.015353626546080251;154.0;0.15386034704600646;0.1046681491361062;0.010970332279267593;158.0;0.14505865814330862;0.09421536553772342;0.008888174991057467;165.0;0.1399672743590264;0.07854195349247726;0.006182370068750636;176.0;0.13197561700396906;0.07087385919800598;0.005038706694956994;172.0;0.1294716046830824;0.05912561151882231;0.0035071205005873674;177.0;0.12153061531079525;0.007100331709219203;5.057300214804352e-05;154.0;0.06425619818817452;0.12695567849339848;0.016170413421038577;148.0;0.16267986116294547;0.13631900425966653;0.01864339228930997;151.0;0.1624560709123514;0.14947408606846518;0.022415391631681995;149.0;0.16861939050986102;0.16829451846299442;0.028413313807081283;150.0;0.17931376558768514;0.168956376059144;0.02863748275356997;155.0;0.183126377851457;0.1508983091047767;0.02284407997615053;154.0;0.17602476354297042;0.14038140995680903;0.0197714505521366;154.0;0.17078396062966034;0.1178786447901022;0.013940376891653615;144.0;0.16289831865437795;0.5150655666894639;0.2661667970163472;150.0;0.30418146227972387;0.480459572500188;0.23161098201986924;145.0;0.30018919558743773;0.4192350347259098;0.1763483913814317;142.0;0.2787454973583747;0.22202436876409684;0.04943564201209805;135.0;0.19788660713628578;0.22133454725049853;0.049131481399815345;135.0;0.1975273183502649;0.22300440688149845;0.04986829268333087;136.0;0.19850260115984372;0.22233973351009403;0.04957720692152323;138.0;0.19804006604924385;0.4289878871448298;0.1846313930175355;146.0;0.26527030881691405
0.0063764729681661326;4.0790865667432954e-05;166.0;0.06042669091499565;12.0;0.07525228592218572;0.0056817161178301795;160.0;0.14655802854409314;0.074195066054417;0.005523080823944943;161.0;0.1464429754065276;0.06479136324191868;0.004211300363568378;163.0;0.1374962298444493;0.06400657898828611;0.004109346658604671;152.0;0.1343423219821259;0.07174061989358924;0.005163018226291135;144.0;0.13885665323582633;0.0836623853164856;0.007022560866753931;146.0;0.14894002911299967;0.07688577189094044;0.00593074326001899;155.0;0.14651794447825583;0.2530761167453278;0.06423735517976195;137.0;0.23641590993737607;0.21452681463147866;0.046158522316217934;139.0;0.21801104499913548;0.173741336440892;0.030277922249001863;146.0;0.19680139812029745;0.1510677715761556;0.022891571689108166;150.0;0.18597846698720527;0.11721156473493953;0.013779442697777852;154.0;0.17390843394484368;0.10073673756242764;0.010178038294229419;147.0;0.1645548962840293;0.08214511520282547;0.006768869172686423;150.0;0.1491229812779094;0.007530763737683037;5.68979855141961e-05;156.0;0.06533435047010096;0.176275579404203;0.031159761107222923;158.0;0.21579606146217664;0.18379014593827422;0.033863260571287614;157.0;0.21312856684274242;0.20053188862173765;0.04030706342950211;151.0;0.2206967410280668;0.22740032631783175;0.051836556769192306;143.0;0.23595220412187842;0.23268552144302845;0.05426716869857985;139.0;0.24227179836345913;0.2061416523950607;0.042588386085957795;152.0;0.23138462237766538;0.18752380022796358;0.0352333226787474;154.0;0.221472550565192;0.16951625524782526;0.0288247659447252;151.0;0.22185794437843334;0.6834153858579971;0.46835490952570025;151.0;0.3699390683187956;0.6872714096370588;0.4735888440761874;144.0;0.3733928744907934;0.6241000426613389;0.3906250930065197;144.0;0.35334352644653133;0.310888762304874;0.09689962301531091;143.0;0.2508857516524215;0.3099475450980209;0.09632397406598574;143.0;0.2505333243155133;0.31198107883088616;0.09758375767852907;143.0;0.25138969883462686;0.310970134433086;0.09695668705571353;143.0;0.25119500747283274;0.5215527194365881;0.27264261178108323;143.0;0.31489527792552874
0.0067270522891334965;4.539756070037273e-05;155.0;0.06118100440862088;12.0;0.0924161274722451;0.008566898080128636;158.0;0.16782269095785968;0.08974737282802812;0.008078280003311978;154.0;0.16655214215678124;0.08693547002129684;0.0075782085079269725;145.0;0.16108012719999842;0.09141627042559992;0.008377661373566096;143.0;0.1616176348215085;0.10270663706411183;0.010575106731214392;149.0;0.168286972523807;0.11795142593708974;0.013948048058462333;145.0;0.18336456498348047;0.09835509179594759;0.009703732796587579;151.0;0.1723505251372917;0.3124521649763937;0.0979370077056399;147.0;0.2796538019961879;0.2665789298512277;0.07128262302274829;147.0;0.2584114192717008;0.21235259799901776;0.045207212324353936;153.0;0.23260574452590665;0.18132519808095063;0.03294389148037033;147.0;0.2171198133544481;0.14550866141418192;0.02122693668042755;149.0;0.20629021740457257;0.1289986212009442;0.016692865872076315;148.0;0.1943418430715189;0.1083901577389308;0.011784829300086312;145.0;0.1766276355458893;0.007511409926466476;5.6606033524834614e-05;149.0;0.0651770083371801;0.19529212902104046;0.03826301118981651;170.0;0.23124700513431692;0.19716419740807378;0.03899621823608671;160.0;0.22550501781863166;0.20483635474338666;0.0420942442930751;157.0;0.22994200778178278;0.21922173236388826;0.048212902494890464;148.0;0.23929363759285235;0.22196763392599606;0.04942833975432427;147.0;0.24440589986835362;0.197535258699384;0.03914734913705478;153.0;0.23755091318938465;0.18201367712616534;0.033237354969082755;154.0;0.23010814479121705;0.19145698592306998;0.03676755113200991;168.0;0.23816857715064818;0.5930172504712394;0.3527707984285773;148.0;0.34842070134170683;0.6145895922359955;0.3789527973987113;147.0;0.34794426459879185;0.5688235999031697;0.3246132792533316;150.0;0.3329493620650758;0.2840841962685286;0.0809258811064435;155.0;0.2517105716808438;0.28323114369484736;0.08043723944086258;155.0;0.2515987170102527;0.28504635337848344;0.08147111621529646;155.0;0.2521742765146441;0.2841420096744284;0.08096070956431711;155.0;0.2520323035579913;0.4363644890555945;0.19096030173964954;150.0;0.2954891579393785
0.007355896591725879;5.426241982985453e-05;155.0;0.06185821961694753;12.0;0.1010702383202076;0.01023318619736976;156.0;0.17851896299565706;0.09994901280074904;0.01000874269394497;150.0;0.17786033111244814;0.10074207281967884;0.01016669416591435;155.0;0.17530701569693066;0.10601130730089434;0.011255332313563569;151.0;0.17683741150171534;0.11537138258105233;0.013334834746392405;151.0;0.1851057663262552;0.12996931315353574;0.016914660759250095;146.0;0.20102147069050438;0.11929395653799477;0.01424993103646768;156.0;0.185350746141136;0.41215150381784177;0.17014778848141132;142.0;0.30931304860081854;0.3396717316830151;0.11555684986506862;143.0;0.28022678592664013;0.2582515364176233;0.06678189722760082;142.0;0.2506428529163174;0.21898081788487878;0.04800369727108689;136.0;0.23219734779317097;0.17717378231987518;0.0314309290797386;141.0;0.21898731991132506;0.15169669324886814;0.023048094393597698;143.0;0.2052959006819103;0.12659154606904577;0.0160463385426021;145.0;0.18969246660188133;0.00791075353547998;6.277761105973012e-05;153.0;0.06555904879508193;0.1656258214403184;0.02751788872021632;166.0;0.21704081401114408;0.1642803951538085;0.027069232979302138;156.0;0.21171438688639607;0.1684911004364393;0.02846835601301758;153.0;0.2152256102890134;0.1794874014051592;0.032308319885919715;152.0;0.22205280638652827;0.1859706704445406;0.03466376546172709;154.0;0.22781892173019494;0.1663571790636414;0.027732978036982693;156.0;0.2241366411133563;0.1547790996927123;0.024012975553707273;156.0;0.22025482272355143;0.16188286899299004;0.026291154933997953;156.0;0.2177460912973053;0.45384543889063705;0.2066414829062828;154.0;0.3203264377458348;0.4154492655386318;0.17310516992592617;157.0;0.3044974459203347;0.3716310638786221;0.13852778608699806;155.0;0.294439229579751;0.20057112879501582;0.0403261787618109;149.0;0.23497514798759175;0.20007708994173087;0.04012683045337357;149.0;0.23512235746134225;0.20154290571169242;0.040720367109435156;149.0;0.23548041673475884;0.20096086598635238;0.040479124759416354;149.0;0.2353636024879093;0.3499366437753763;0.12284283152940176;162.0;0.2778431230741404
0.0066938739636794985;4.490824097515107e-05;150.0;0.06046113434283411;12.0;0.09701003640404449;0.009441818479661619;158.0;0.18183293952387203;0.09545846933351897;0.009142247232737422;157.0;0.17893496514525783;0.09804911810734224;0.009645087990124738;166.0;0.17813146570689345;0.10456080430029646;0.01096768415953647;164.0;0.1826636157185526;0.114914479866971;0.013246278929199867;162.0;0.19269507470430527;0.13421082450361996;0.018071396749240184;159.0;0.2076182836973125;0.12907383275416776;0.016713990918817596;159.0;0.18944779402761455;0.4553866684311449;0.2079199473290642;138.0;0.32896635926539475;0.36546693707269134;0.13393096970717472;140.0;0.29270778142959536;0.27648035186787856;0.07666973008321197;132.0;0.2582173202175962;0.23624837956784223;0.05599031165353007;135.0;0.2377930117510766;0.1908711086158759;0.03655083384875194;144.0;0.22082340737438952;0.16629859434329622;0.027745494620618972;151.0;0.2109262060917613;0.1364712679240694;0.018684836633318595;155.0;0.19885833014659315;0.007560777851730589;5.73380589452066e-05;165.0;0.06211476332359057;0.10686747837056576;0.01145780716505452;162.0;0.19109119814386644;0.10271102852190617;0.010584107726254283;161.0;0.18844685314504622;0.1106949978612359;0.012293279449374004;156.0;0.19337317921942973;0.1302021720681313;0.017006668340235745;149.0;0.20381024088285257;0.1473189477883073;0.02176745881743629;147.0;0.21281487907365648;0.1341570172412992;0.018053702708797886;151.0;0.20955672457220667;0.12338776658830491;0.015271899354812697;157.0;0.2057435394743168;0.10481995949057141;0.011020963005808094;150.0;0.18853927958838326;0.4401587496053817;0.19424055303874022;167.0;0.31458789528969183;0.36344565205637075;0.13242321621749542;167.0;0.2851623188378273;0.3125987879735622;0.09798503958942258;164.0;0.27357104231839463;0.1710719141594125;0.029358851973828076;151.0;0.21838383044559478;0.17066852484484443;0.029220752268148076;151.0;0.2179372022369259;0.1718273135669763;0.029618764216130602;151.0;0.21839973200368393;0.17151317178991293;0.029508037852543613;151.0;0.21854430833961258;0.34234708747233633;0.11748653294933924;171.0;0.27924291195798395
0.006388445223398023;4.087833920780335e-05;144.0;0.059911488061994374;12.0;0.10600801136890137;0.011271568975162133;162.0;0.20227623199454922;0.09661762299767829;0.00936378904667074;162.0;0.19296412939343682;0.09527879777906086;0.009107153655020314;166.0;0.18885261560122954;0.10150640163208514;0.01033401724027743;165.0;0.19140649133899018;0.1145020048607705;0.01314286330558125;168.0;0.1998885856026526;0.13793360634268118;0.01907102864314655;172.0;0.2142107099454603;0.15393142399073884;0.023772268340332248;163.0;0.21542392659232143;0.3774893854929697;0.14236554103065105;156.0;0.3165800241199079;0.3040730079065635;0.09234275840385689;157.0;0.28652326542554746;0.2345532520146684;0.055020154920155856;151.0;0.25714462246780156;0.20659947879346957;0.04270467488979673;160.0;0.2432542265911002;0.18536845459718873;0.034425387841459695;163.0;0.23204870811989167;0.18898370516796986;0.03582486355446394;170.0;0.23137256502660525;0.17866121511576444;0.03202397126800989;166.0;0.22665371987548852;0.007445663703543584;5.5584586660956266e-05;158.0;0.06509816193764036;0.09160296667252586;0.008395981283084724;148.0;0.1766281271626831;0.09069788370190841;0.008232633580022143;155.0;0.17589315055600788;0.09788283910147227;0.009595800829013665;152.0;0.17953959682144535;0.11533998094823843;0.013332377030827581;156.0;0.1896092534849464;0.13117999409038125;0.017243590680581608;155.0;0.19902677120884457;0.11773755126612688;0.013880132674173358;150.0;0.19474845407899466;0.1050595643768854;0.011046138115559436;148.0;0.18869941937124785;0.08689415487710479;0.007551939799904892;152.0;0.1742377498866258;0.4132955267144948;0.1710738002965291;146.0;0.30867773224616396;0.3325692496151139;0.11067538912138027;148.0;0.2754702228785051;0.2814168377086643;0.0791983400554608;148.0;0.2570292778054975;0.15281246503638685;0.023355506609207464;147.0;0.2060557883571597;0.15232735706453515;0.02320587421816693;148.0;0.20539827537954722;0.15337204620078315;0.023526695752400295;147.0;0.2060530740684061;0.15302593666475614;0.023429373018935173;148.0;0.20607052484601465;0.334447470893977;0.11209501402395675;157.0;0.27517382522262174
0.006356771807680788;4.0540585686395183e-05;155.0;0.05952134484091107;12.0;0.11943248027436239;0.01430555992945157;164.0;0.22283373831316514;0.10883380718880972;0.011878322557728093;158.0;0.21205146608063394;0.1063922151954494;0.011353516345024137;163.0;0.20504023495359208;0.11118724392325093;0.012399499735865458;163.0;0.20471779209134822;0.1217090134578192;0.014855781706761181;162.0;0.21324097450723722;0.14121896213274163;0.020003851128749747;161.0;0.2309912418203604;0.1653903529696806;0.027442535999079892;164.0;0.23676418061711701;0.3998990279627171;0.16028275630784503;162.0;0.32729566888155215;0.32070297414903964;0.10308231599460146;165.0;0.2940966368523051;0.23299406854952903;0.054427440285499194;166.0;0.260690534197439;0.19709294312333628;0.03894178624667374;171.0;0.24812226816005883;0.17699698166538866;0.03141570313965974;167.0;0.24043955966057115;0.19263119349431834;0.0372214064290785;170.0;0.24419330190063365;0.19752866051580803;0.039140439205796004;169.0;0.2448311153932627;0.007473780098749179;5.6026469866190635e-05;154.0;0.06833445577373347;0.08379299302091314;0.007034619552258598;134.0;0.16219889964817913;0.08215627695679027;0.00676230439930381;148.0;0.16191819449418848;0.0878846822000772;0.007739739847018067;148.0;0.1633149743291263;0.1022459943222371;0.010480082975558554;158.0;0.16918856104888833;0.11483029408280271;0.013217141480570054;161.0;0.17703417618068149;0.10067394697808887;0.010160440775157108;162.0;0.1699137325118685;0.0882107870295395;0.007800560743666492;151.0;0.16136651742461114;0.08269559833545884;0.00685609113689945;141.0;0.16349738594242655;0.3458800767953195;0.12002203525223198;132.0;0.26690866416284587;0.27798487313100856;0.07751309822557932;133.0;0.24351306454582158;0.23489458166525037;0.05533516855036131;134.0;0.23104452375197226;0.12915056594790245;0.016730417942927688;142.0;0.18499089240751013;0.12869755009150405;0.016612115565644795;143.0;0.18515384853360423;0.12956167893809795;0.01683585790333406;142.0;0.1852856783288788;0.12893809726892527;0.01667630528229502;143.0;0.18509925657849763;0.2782733509527428;0.07768882064153404;143.0;0.23439458725197412
0.006295970520514427;3.9740751320541604e-05;159.0;0.061049154119626366;12.0;0.08951871617399951;0.008039774980385854;166.0;0.1714236763988837;0.08392878167679332;0.007066969067455198;154.0;0.1661657103531428;0.08316781066955878;0.006939392799444492;153.0;0.16134672795894933;0.08675684415358768;0.007551268888821221;158.0;0.16170647676282074;0.09334965643093257;0.008742593337930767;165.0;0.16931817555074952;0.1052418155374642;0.011110968276793054;163.0;0.18420484282395047;0.11466333105326805;0.01318866607184669;164.0;0.17904253405962225;0.33877782423248853;0.11490904694444781;151.0;0.26336051793903686;0.27068488692406106;0.07335196268233428;155.0;0.23568814157228785;0.19221951503881937;0.03701882758979968;160.0;0.20526265884504982;0.1556831439670972;0.024288996727899106;161.0;0.19168139996333228;0.1273276560443088;0.0162599293628661;159.0;0.18327417717353398;0.13436332586184968;0.01811235130517918;164.0;0.18652696114842118;0.13584050972080533;0.018507048883466368;166.0;0.18540303951133294;0.007225511837780154;5.237770807639334e-05;158.0;0.06670488099060598;0.0631518421266156;0.003998250787588389;154.0;0.11793084851812961;0.060883692263980826;0.003716968601372322;156.0;0.11748123064645148;0.06208849650835259;0.0038664551145797398;154.0;0.11732978262998227;0.06553342728473847;0.004307789418109293;151.0;0.11895466177716156;0.06793811570493911;0.0046296014428757765;153.0;0.12223866713613384;0.060609990610664154;0.0036840484675512365;159.0;0.11653145832505617;0.05718953580354646;0.0032782101526580435;159.0;0.11087762542945537;0.06288160872077686;0.003964316196077212;154.0;0.12119043849659134;0.21875338297502317;0.047816053039734956;140.0;0.1746812963742729;0.18471408208700218;0.034083257299991655;143.0;0.16361816016921074;0.16098862698007252;0.025900542157764238;147.0;0.16075516073856735;0.09306536218613731;0.008674872876236639;155.0;0.13074171943573104;0.09271937495848825;0.00861188971227477;155.0;0.13086913714420664;0.09317686962267807;0.008697162915928796;155.0;0.13092538822945718;0.09287951278983185;0.00864189937205983;157.0;0.13078907618249092;0.1733215346657901;0.030038180053228065;142.0;0.1531674722293937
0.0063243959649454074;4.0102231972702504e-05;153.0;0.060948490447943905;12.0;0.06778411518558912;0.004609186997395184;163.0;0.12482636320745356;0.06644562144065869;0.004429010546564308;157.0;0.12484474017899422;0.06558638173125221;0.004315273547538589;157.0;0.12444406813199549;0.06451267688628456;0.004174892530234328;161.0;0.1254469078101592;0.06531264416080333;0.004278873827428352;166.0;0.1291272987261017;0.06870624051672453;0.0047357756500130965;168.0;0.1364129172891314;0.08260470939290682;0.006844359759045552;154.0;0.1333205686287438;0.1476921912789045;0.02187660078232782;147.0;0.15609499103795282;0.13031562932076748;0.017033329254365036;155.0;0.15072286156551845;0.11354951279487757;0.012928079134404923;162.0;0.1455622051510587;0.10704476381351964;0.011492884616094554;161.0;0.14379139169260527;0.1045313894857278;0.010962069695772084;156.0;0.14425502648138278;0.10543636613117749;0.011153028519050341;157.0;0.14518826856263078;0.09255797095574658;0.008593071462095918;156.0;0.13782860029097638;0.007246936862850167;5.2653375065065904e-05;157.0;0.06632898243246958;0.030944947399915743;0.0009602891231537856;150.0;0.07532314655306174;0.027449613071235807;0.0007550574087779513;151.0;0.0724163361571548;0.02581456576764424;0.0006673323075674438;150.0;0.07156210061777483;0.0251071243913156;0.0006303267644390828;150.0;0.07017339148641243;0.02521845399445069;0.000635939737810939;144.0;0.07035093213146788;0.023923771893021646;0.0005728321943770502;148.0;0.06900920238358417;0.02264440854394852;0.0005136101785768168;155.0;0.07044532909664583;0.030416507413627905;0.0009281828869595291;147.0;0.07593154809498519;0.06350264059543015;0.004045175367985202;148.0;0.10938723430965863;0.0588256233035809;0.003471072961543911;152.0;0.10274340107331333;0.05025004593615564;0.002532289498103106;151.0;0.09542635101316224;0.029335369680321386;0.0008631388129609747;160.0;0.07836082555036561;0.02903474815906184;0.0008451967707100794;160.0;0.07710225335742596;0.02933643318696079;0.0008630645650589699;162.0;0.07809783445808702;0.029291825651730944;0.0008603213557536059;161.0;0.0782419233587363;0.051691238784433144;0.002680067665339269;141.0;0.09531788845778684
0.006688199056358509;4.482887685939182e-05;156.0;0.05727737521202601;12.0;0.13381663044046438;0.01793996774388204;157.0;0.1842141389145411;0.12999363080098425;0.01692943576351428;159.0;0.1809884644156868;0.12089956164209788;0.014641692820731729;165.0;0.17576346150717606;0.11431860637911417;0.013089070469906145;167.0;0.17338473486500142;0.1146012311523575;0.013157508115390758;164.0;0.17486700501644026;0.12293189602237298;0.015142430234324773;163.0;0.18388884732858757;0.1384677095725881;0.01920271565670769;152.0;0.19129065335240575;0.3673370953380824;0.13499106981573142;139.0;0.2592726598859922;0.3028767442355955;0.09173033701662764;147.0;0.2401520043006222;0.2375859477558954;0.05648857709698675;148.0;0.2208499390356492;0.2082981408356943;0.043422982949864276;144.0;0.21217513981260466;0.18149257547551048;0.03298600249248336;150.0;0.21040748131677817;0.17560481889427643;0.030878035226937623;154.0;0.21220476421448506;0.1598747211613338;0.025596536027899193;156.0;0.2020879263469698;0.007001229652126253;4.914773059296738e-05;149.0;0.06182304696188334;0.09269168672900736;0.008619975147592003;145.0;0.14456623380544772;0.07874737757050859;0.006222334334990142;148.0;0.12867480885832894;0.07188367995295894;0.005184156669303477;153.0;0.12354950513562986;0.06730394326427666;0.00454405714530216;154.0;0.12095075777208689;0.06301864924503824;0.003983298602753393;152.0;0.11978582911440369;0.059934586162143894;0.003602471847552308;156.0;0.11979137703981252;0.057577370165920475;0.003323803793123546;156.0;0.12096362995959999;0.09492075545809713;0.009036846062764427;137.0;0.14484915421205918;0.13896395561151098;0.019376627725348754;153.0;0.17075938721853323;0.14108578307649045;0.019964510534284153;155.0;0.16932641818716687;0.14852107507835793;0.02210313152119315;154.0;0.17024905663582085;0.12442251139973438;0.015487783570758591;156.0;0.15120968537812982;0.12420347677438014;0.015435774297134604;158.0;0.15073536446133154;0.1251973812620036;0.015683431717018977;158.0;0.15159715800104573;0.12476186471091323;0.015573156160941076;156.0;0.1513382630462264;0.12136592967441576;0.014779435380064503;156.0;0.157372171665909
0.007311612282812917;5.363221780130005e-05;159.0;0.06007596634253056;12.0;0.1792734549517588;0.03223546017064331;149.0;0.22551103623973354;0.17468628067468817;0.030608207332513102;155.0;0.22061633601040193;0.1745791336761474;0.03057005162438365;157.0;0.21588615980062414;0.17799678491678705;0.03178126087043752;158.0;0.21697401848924155;0.17967347552131158;0.03237911648419715;157.0;0.22029109161038982;0.18693210118091075;0.035041196368133895;157.0;0.23024014898550552;0.20202987737699737;0.04094635936419623;152.0;0.2369565127006289;0.6342644699587973;0.40345834368015676;125.0;0.3620304781968112;0.5333311241220178;0.28527105323442914;130.0;0.3296930707420086;0.40360417387899705;0.16333765361978095;126.0;0.29038550390500084;0.34276480771003065;0.11781696886858174;124.0;0.2728344303617821;0.28305197911291924;0.08034411298244523;152.0;0.262757183315174;0.2580481325285804;0.06678278497889888;151.0;0.26238783241236974;0.2248125018769666;0.0506982742535982;152.0;0.2507281227841726;0.007653374337955873;5.873340706964338e-05;145.0;0.06022251499087087;0.15990930581311424;0.025632099057723762;158.0;0.21527989662918248;0.1556784845898887;0.024306393902292688;162.0;0.20287217895588838;0.15433251670781076;0.02388791890924847;162.0;0.1979157678083119;0.15422539652319087;0.023851221833431923;158.0;0.195493897388666;0.15298564601276396;0.023470718831325475;158.0;0.19492674817387426;0.1396289579854866;0.01955314192987489;158.0;0.1920376772025383;0.12699301453762488;0.016176175325189546;150.0;0.19037473367061455;0.1513165279037363;0.022944850295335318;156.0;0.2120213656287302;0.25999385707627926;0.0678159804221747;152.0;0.25000858265236453;0.26716749474672064;0.07161209839668577;149.0;0.2535460367841782;0.29896414247517583;0.08967475584217259;146.0;0.2650543664101776;0.23355522285028973;0.0547275278467011;140.0;0.23292438404187743;0.23318871750903614;0.054555504262414234;142.0;0.23263515496946072;0.23476874973264344;0.05529856358509802;140.0;0.23357651543350016;0.2340348499055694;0.054953197260475505;141.0;0.23305603073440975;0.22499014836831807;0.05078626753628919;155.0;0.23258662779026898
0.007254926939699187;5.278706544091137e-05;163.0;0.06328366034241806;12.0;0.1865425880382275;0.034912180392997295;155.0;0.23217481729986772;0.18586867721690575;0.03466018406704501;155.0;0.2278626351759087;0.19791321279197904;0.039297791209113024;154.0;0.22451564480118563;0.21353353756525945;0.045745184113544585;154.0;0.22876397761627987;0.22266368506544526;0.04974104901400751;156.0;0.234909267738678;0.23454253658439558;0.05519046660648622;159.0;0.24676863196941307;0.22258170305568456;0.049704672299779436;145.0;0.23951747704932758;0.772589993058917;0.5988497243785977;146.0;0.401670584102106;0.6540458024878281;0.42917156347888696;149.0;0.364172739756815;0.48625217787879765;0.23721394536471585;147.0;0.31513972897403886;0.4052666244594443;0.1647746641455331;148.0;0.2904555890699714;0.3162273203698084;0.10032640621150889;161.0;0.2683946054403008;0.2754887874211792;0.07614234186585522;153.0;0.2608719925412635;0.23676486718041828;0.056240654032672865;152.0;0.24943576410182783;0.008132157342023247;6.63470847179136e-05;146.0;0.06270502087840302;0.18798400747527594;0.03534544741862717;158.0;0.23349189266053672;0.1969002529138929;0.038818334516262716;162.0;0.2301539572354038;0.20099607295156752;0.04046413600738081;153.0;0.23013281244214512;0.20460378423005737;0.04193349076273182;151.0;0.23186766296749686;0.20014069323117115;0.040139216276348984;156.0;0.23358673471157798;0.1750477624426926;0.030715987451013716;153.0;0.22580348562321967;0.1549097953120956;0.024058009817158842;151.0;0.21875655074206504;0.17180956556404955;0.029505376734614785;159.0;0.23349292939585267;0.2936008788328841;0.08630212946006284;154.0;0.2817251758017025;0.29269649321441626;0.08571383485391484;150.0;0.2825616538216245;0.31547176998141535;0.09954239970451993;145.0;0.2891772658614532;0.22489802524904529;0.050502143787930776;145.0;0.2484526937725717;0.22450152374508844;0.0503514810481483;144.0;0.24832662030745442;0.2258936535345868;0.05099314220070746;144.0;0.2488475887679621;0.2252444667205273;0.05067882142158682;145.0;0.24857604544980783;0.2610349358066328;0.06826883843293738;149.0;0.2657904989844587
0.0066146199965242975;4.3892072814628885e-05;164.0;0.05994875208329395;12.0;0.17580931948084746;0.031010731033706912;154.0;0.22875510466746654;0.1759830252228194;0.031072085597797568;149.0;0.22765976721143755;0.18170313080685227;0.03312289843522656;152.0;0.22432241388464913;0.19458180706431916;0.037984376002899854;159.0;0.22685963189229744;0.21291164932025897;0.04546945957144638;162.0;0.23532798349196063;0.2433792107831372;0.05940233616420863;164.0;0.25563031672300535;0.20888908893167804;0.04377383422505112;145.0;0.23255339719088364;0.7667075440565032;0.5897377005979337;158.0;0.41363365701177374;0.6447790277501875;0.4170974279166623;157.0;0.37459075306543643;0.47277456594920775;0.2242411636642095;159.0;0.32269373794561834;0.38779983205671964;0.15087933848292803;157.0;0.29243754119018084;0.2936009208202789;0.08647932087390103;155.0;0.26575850577664273;0.25602154910223723;0.06576121313405771;155.0;0.2549046271638264;0.22084529621074417;0.04893218265102055;146.0;0.23993182731146775;0.007762508447870941;6.044955052554038e-05;161.0;0.06555707458322005;0.17630613635199968;0.03111039640003219;144.0;0.2239351342039895;0.18340427512974647;0.033680562071152116;145.0;0.21917543840688877;0.18830843036186287;0.03552450392093235;144.0;0.22156425609117344;0.19480314986166242;0.03803455354622524;145.0;0.22861424835181646;0.1928637978593622;0.03729393679358339;149.0;0.23394903982444323;0.16641397415745132;0.027758061039886817;152.0;0.22639402800510253;0.14481236193753405;0.021026352301636617;161.0;0.21617688967293058;0.1647813109723598;0.027189542159050076;152.0;0.22394778744007676;0.28548144186556396;0.08176423952515784;149.0;0.2794956720096453;0.2636315932735468;0.0697274158612519;151.0;0.27247943870197033;0.24723260829419036;0.06131762905877058;150.0;0.26746697974300204;0.1574737137760141;0.024869607721154197;144.0;0.22641688905826224;0.15715593017141335;0.024763093419522077;143.0;0.22637610729060545;0.15807317949951646;0.025057963249274354;143.0;0.22662123787076494;0.1575757604957099;0.0249027981700903;144.0;0.22661432728640513;0.24111964025852556;0.05832336109683938;152.0;0.26106371071965767
0.006831497913299756;4.6808988999048255e-05;152.0;0.06053244056673811;12.0;0.18839818119460416;0.03552254110237574;157.0;0.2363432322505821;0.18232594418422501;0.03325418653080898;154.0;0.23445719500480539;0.17696358751180566;0.03134212672776295;162.0;0.23111684699723614;0.17903611659577162;0.032081443994998175;165.0;0.23145120762712706;0.192492505458414;0.037099125996001514;165.0;0.23963076033302322;0.22157267632816263;0.04917990523967085;162.0;0.26042717266135285;0.22301247502514024;0.04982529358409573;156.0;0.24312982059527513;0.8351474898655672;0.6987445840392595;160.0;0.4356735140602876;0.6919940540538206;0.47958626944534444;160.0;0.3931112936785692;0.5134531093084287;0.26398997187609047;163.0;0.34179143363909764;0.4277407819910091;0.1831741981665653;161.0;0.31211111535312547;0.3411018501608678;0.11655335752431728;160.0;0.28576942452819404;0.298476423329707;0.08925723718168294;161.0;0.2721827848857441;0.2445305935386635;0.05991737015031152;155.0;0.2519481520019024;0.007745902856696742;6.016731735051739e-05;165.0;0.06626338096724403;0.14740236223840839;0.021736019609155915;139.0;0.217678556812901;0.14751975231117245;0.021764901060452254;137.0;0.21094122121201198;0.14871502580426668;0.022117514975203326;142.0;0.20975269574883845;0.15419412716321762;0.023786364471830884;148.0;0.21313249578894047;0.15849805465036362;0.02515305390751864;148.0;0.2181793824142879;0.1402073880749273;0.019669731853146657;148.0;0.21396286964459374;0.12279888103942865;0.01509026258396596;154.0;0.20763898072150216;0.1387773208380918;0.019267246413413503;146.0;0.21430750171870205;0.29466432596495284;0.08678672526276753;137.0;0.2831681812491736;0.27296816884912284;0.07454659185258512;143.0;0.2738486962212585;0.24746731905161654;0.061258006636904096;145.0;0.2662399462793706;0.14998655156523608;0.02250062277948523;143.0;0.21797358317332177;0.14961256823115077;0.022394614336902405;143.0;0.2175423575876622;0.15060239745384937;0.022690929001654054;143.0;0.21809131736029563;0.1499792042164281;0.02251179196194973;143.0;0.21799779502666536;0.21624151348578385;0.046698489563250886;147.0;0.2497349187434325
0.006858638567845966;4.7178707422188104e-05;145.0;0.062407001012817334;12.0;0.18883603773944999;0.03576433845135441;156.0;0.22758657225241105;0.17951747238960802;0.03232489542107578;160.0;0.22244806523828178;0.17359034946503948;0.030226410166471186;169.0;0.21935438310554642;0.174328731723198;0.030486296282727827;174.0;0.2199517743834251;0.18201209275476066;0.033234315642464395;172.0;0.227319923386257;0.19873526304236774;0.03962064127341153;170.0;0.24331055339791133;0.22005426500307376;0.0485406906283026;161.0;0.23326054871636462;0.8465273657141444;0.7186240532398293;160.0;0.42551827403594833;0.697319887578187;0.48766103665223015;162.0;0.38088586334569396;0.5276709923410138;0.27912923082989116;163.0;0.3335666956342167;0.44458669557726566;0.1981545485713294;162.0;0.30857685185846384;0.3566369896588106;0.12753457859121284;162.0;0.28400719805814395;0.3080478619178998;0.09511294217085745;164.0;0.270317276322715;0.2462809906350975;0.06081217825674531;163.0;0.24745232189494457;0.007133735540480075;5.100631951519401e-05;151.0;0.06172233685720359;0.12430450881184618;0.015488027748744772;144.0;0.203761667250966;0.12923806688655773;0.016747066574057078;140.0;0.19922242381895247;0.13202619932600668;0.01748385807481819;142.0;0.19828967137399067;0.13663302054112805;0.01872953710403386;145.0;0.19831828643037477;0.1373727893825662;0.018933267529905012;147.0;0.20023957551770125;0.12338081034243334;0.01527285917057666;146.0;0.19716406966993963;0.11152083382017042;0.012477736709812271;158.0;0.19494863166845447;0.11833909191366092;0.01404342727811467;153.0;0.20791997820447503;0.2735966945138541;0.07510023600520295;150.0;0.2699032174733534;0.25627593335007276;0.06589195421087679;148.0;0.26534204150581886;0.23817768591468222;0.056915183460319124;153.0;0.2590993023593825;0.14889098538855947;0.022241503544937435;156.0;0.2107592118518202;0.1484243780666609;0.022101786338868164;156.0;0.21038890368564603;0.1494859999068103;0.02241921030212129;156.0;0.21086803802155207;0.1488929421058456;0.02224142377799862;155.0;0.2107540018237212;0.2036176015792922;0.04159614175089178;161.0;0.23344359831828404
0.006716399802730695;4.525058198005994e-05;150.0;0.062080652837290085;12.0;0.15623349101063716;0.024488553330048592;138.0;0.2127234538245131;0.15095693860511308;0.022861824437566756;140.0;0.20776581526968332;0.150474690876054;0.022716317758725593;144.0;0.20623934275247632;0.15465679178555858;0.02399585914772878;153.0;0.20802680213091093;0.16334971156485115;0.0267697086336764;146.0;0.21425968352509175;0.18175550070913168;0.033141810430320696;146.0;0.228573911859082;0.17895519718143674;0.032129637398996165;144.0;0.22019384323771224;0.6966080423009723;0.4868454196167559;139.0;0.39766828612367283;0.5790162296755894;0.3363554193349102;140.0;0.3583849886467609;0.44342351012637227;0.19724573746343801;140.0;0.3139515352201622;0.3730921417388806;0.1396498816588097;133.0;0.28874547709600457;0.2954418423241696;0.08756962346354905;136.0;0.2677725947576472;0.2559512558125741;0.06572440735458132;140.0;0.2566817091498496;0.20222574909998242;0.04102718086510371;138.0;0.23361368433454424;0.007109806759238543;5.0713432531114976e-05;146.0;0.06321208614691831;0.11262995948344569;0.012715232604698826;140.0;0.19244307726460191;0.12542886674542816;0.01577362079567651;147.0;0.19256821867418422;0.13617242717720932;0.01859495709277785;146.0;0.19740197150654964;0.14772007680697294;0.02188390862143506;143.0;0.20293665818689752;0.1510124883193239;0.02287537393866241;143.0;0.20600748788846227;0.1350052000027696;0.018283599390502562;144.0;0.20002221677127;0.12073610561218082;0.014624455790327801;154.0;0.19484549832122447;0.1071097180799;0.01150346126476425;153.0;0.19666342299537437;0.23756649070351565;0.056573185468723614;162.0;0.25392840566983066;0.21712996155256914;0.04724319007891171;157.0;0.24723345530296906;0.20947249526274242;0.04398608153661249;160.0;0.24321412847827875;0.15668580038537044;0.024629609306291992;150.0;0.20981636490455244;0.15647003128828654;0.024560090873038627;149.0;0.20987030953243496;0.15760128654305763;0.02491728159880146;149.0;0.2102395741490891;0.15689093581486796;0.024693454443396455;148.0;0.21015880718317465;0.18772426111171772;0.03532903636733498;165.0;0.2257565183712751
0.006694900767410612;4.495919976036438e-05;156.0;0.060519618097521787;12.0;0.12854972303619694;0.016577794436373493;147.0;0.20829399600337992;0.1278994200079569;0.01641165091358129;142.0;0.2045965742538147;0.13145322567443854;0.01733546822420377;140.0;0.2043863534427724;0.1369102196789809;0.018804974497088244;142.0;0.20554976835691405;0.1425774025543953;0.020393419042593543;138.0;0.20900989850834822;0.15301214959324297;0.023488499205195315;147.0;0.21643281320175467;0.15233667578905669;0.02327359315344817;150.0;0.2179536110667419;0.6277863665090215;0.3953958051532952;157.0;0.38806972038896487;0.5062087206672843;0.25708074818722404;155.0;0.3484377555817329;0.3734945753917049;0.1399533012253126;157.0;0.3037078513979128;0.3073714095101324;0.09477139241264966;151.0;0.27743831697149934;0.24289650172189442;0.059182473986033074;146.0;0.2585167000351389;0.2119612966523435;0.045054078120619956;144.0;0.24968636287261753;0.17139419771251613;0.029456307556054183;146.0;0.23095117187979547;0.007602508407497477;5.7986959819627644e-05;152.0;0.06559395793104009;0.10355877358542787;0.010759405407622534;135.0;0.1813459866964042;0.11295771957026769;0.01279969297410409;140.0;0.18402747070772335;0.12246216639217186;0.015044706459829488;146.0;0.18849176497146403;0.1344561356819733;0.01813689689832082;144.0;0.19617202015725593;0.14029301180115103;0.019744791652423224;143.0;0.20102686169129394;0.12690734825371988;0.016157899955131484;142.0;0.19317828974530782;0.11536721972093548;0.013353092659140486;139.0;0.18578641201807333;0.10009121241557073;0.010050496371400812;142.0;0.18507918462072667;0.2514560693078489;0.06343129145753645;155.0;0.2449640360680595;0.22242307511198814;0.04963030578781433;155.0;0.23281616777033004;0.2026796755387406;0.04121086023705109;159.0;0.22591102949752503;0.14052457757791398;0.01981162904897791;147.0;0.1966684448592238;0.14041912923992703;0.019781968257646564;145.0;0.1969473966820622;0.14151609913715077;0.020092256498946515;147.0;0.19731036740501887;0.14079442364933736;0.019887391647753612;146.0;0.1969401735518185;0.1952088972309315;0.038229342834008785;149.0;0.22029583381837253
0.006401583252945037;4.111349673601075e-05;157.0;0.05843216364170515;12.0;0.0789891623971464;0.0062521474466764974;156.0;0.14958939277462696;0.0786955982826247;0.006204413507506367;152.0;0.14774844349369878;0.08232100523283471;0.006792974416963762;151.0;0.14920389614538937;0.087187655521483;0.007621363496440681;153.0;0.15137139899017163;0.09133560779428047;0.008364056026519158;152.0;0.1552292026447997;0.09539420836968142;0.009126490348180862;161.0;0.15960091793473963;0.10374677951447239;0.010784625894956119;156.0;0.15848020555574363;0.43871936398832506;0.19302501077512266;152.0;0.27191121805872215;0.3392051068538389;0.11536980616083643;156.0;0.24014948142653034;0.2391046574484485;0.05731547736610515;156.0;0.20836124527694788;0.19120960172381843;0.03665612145373152;156.0;0.19207782743015206;0.1519650084805771;0.02313886142720475;155.0;0.18131701470342265;0.1363856870792649;0.018632273715348018;156.0;0.17869490235055455;0.11649864597036545;0.013601849890567256;158.0;0.16912034635264642;0.007235752449609893;5.252711319480914e-05;159.0;0.06416231400605515;0.07792878735315195;0.0060865249843310675;140.0;0.14578865464541457;0.07824133418784078;0.006137523111539464;139.0;0.1462188557992433;0.08076523225636763;0.006542125758752906;143.0;0.14842837256938107;0.0859391667688958;0.00740861272941663;137.0;0.15457656073649104;0.08957153999399717;0.008048211625135934;143.0;0.15982758858321672;0.08365768341008933;0.007020773864958501;145.0;0.15271086618270774;0.08010993364541606;0.006438577621671511;149.0;0.1457526419157394;0.08089505500861316;0.006561192221728918;146.0;0.1531992651032403;0.21141590541079855;0.04483872136783089;165.0;0.19704954969455085;0.19000943072631715;0.03621767956104561;168.0;0.18819641232433895;0.16846451111668712;0.028471841021962294;166.0;0.17937381099503802;0.10283708765080969;0.010610281350782624;158.0;0.1504739046530841;0.10256754713736578;0.010554826161859937;157.0;0.15057407657546623;0.10338507500426825;0.010723305712708435;160.0;0.150777233460762;0.10293869518858348;0.010631342427780303;162.0;0.15063606017915765;0.16778999233116837;0.02824514071252154;168.0;0.1755881502546198
0.0066141083354734785;4.3888363449458054e-05;156.0;0.06121723237338221;12.0;0.03735888134559894;0.0013974258740313934;139.0;0.08482603403686284;0.034716043102199425;0.0012071947836670477;137.0;0.08277282702668111;0.034315636938452104;0.0011788616476462298;139.0;0.08392092849285494;0.03569286187294439;0.0012758099769661889;146.0;0.08764304380987298;0.03837721713433238;0.0014748098334925906;146.0;0.09342235746437429;0.043679182916608224;0.001908484749535789;145.0;0.10021940682625714;0.052572358994478784;0.002769267825779688;139.0;0.09010517158472738;0.16444301161230382;0.026917017803126053;137.0;0.14721719707245828;0.139070865734591;0.01928090717096789;145.0;0.1358021772108875;0.10218557997088701;0.01041033904704638;142.0;0.11857389367869145;0.08628424643031264;0.007424673998366299;146.0;0.11052365463860188;0.07072721641947223;0.005005017546133175;150.0;0.102685625135531;0.06697306251275209;0.004493703087993764;151.0;0.09919435696001684;0.05774362134871602;0.0033409652444095854;149.0;0.09303755296790435;0.006982104518420939;4.890862856453522e-05;154.0;0.06549488532108182;0.14322325137214492;0.020516799969917093;140.0;0.18159136126461106;0.13907665216831117;0.01936047671589933;135.0;0.17458699610066694;0.14234671813811028;0.020292139384013443;139.0;0.17800931257750727;0.1514669616895254;0.022994980081574183;135.0;0.18621200175030825;0.15367967734895718;0.02367899256259832;143.0;0.1925820890266558;0.13866950081947652;0.01927564654089927;142.0;0.1848672976988083;0.12671876149486205;0.016089533984460967;144.0;0.17457080128584299;0.1507101683150296;0.022725416548604622;141.0;0.18943096008225593;0.29999787439202646;0.09019187143503818;158.0;0.23018487901020562;0.2890657389374497;0.08367045057581883;166.0;0.22204614002971174;0.2709183690350849;0.07342656158200177;164.0;0.21389126782102386;0.1749552709471734;0.03062747815874693;154.0;0.18496558795069687;0.1747394279813488;0.03054571893093117;154.0;0.1846878277909376;0.175706837399185;0.030901298696042127;155.0;0.18521849442550128;0.17512459452946538;0.030688794848018827;158.0;0.18524459120502104;0.2553740709147981;0.06536883002316388;166.0;0.2113156433324774
0.007090188793286103;5.0409071261725577e-05;169.0;0.06353520143633128;12.0;0.0736141596299471;0.0054312913189728425;142.0;0.13443846021943293;0.06792773241051538;0.004625170154858927;146.0;0.13131838781153565;0.06776474579137545;0.004601487722066484;145.0;0.13001723925268197;0.0724124656086101;0.005253907037716237;151.0;0.13318272234346612;0.08339626923582594;0.006969837443990292;150.0;0.1396780330035568;0.09918309428716271;0.00986084498603617;154.0;0.14873808937019212;0.09151542222251124;0.008385830117105574;146.0;0.14549086889790153;0.28031278500543877;0.07866364260904561;155.0;0.24129583435398935;0.2287933456161864;0.052402275445906844;159.0;0.2201374417751563;0.1710256082346882;0.029277961197966572;154.0;0.19113800456800498;0.145978183657316;0.02132659614505844;157.0;0.17653460949182245;0.12382714791324766;0.015345610174448833;154.0;0.16349413764789048;0.1197967405756915;0.014360981604824127;154.0;0.1603012328322336;0.10502491504492502;0.011041645118967365;151.0;0.150469915694888;0.007994332972440258;6.409870650578993e-05;161.0;0.0675480264589909;0.18987641317382667;0.036152016106443315;148.0;0.22700635839149372;0.19599429827358134;0.03851917070036709;142.0;0.22469663362758002;0.21205948019133197;0.04510458736907162;146.0;0.23361122929618378;0.23627196429242803;0.055999748958923685;148.0;0.248013876971624;0.24549419220604324;0.06046276459780564;152.0;0.25635702098479435;0.21868256815786022;0.047972726241081724;147.0;0.24422912695004975;0.1920966819234575;0.037006740027174426;142.0;0.22795567189259525;0.18824283955676213;0.03552171630414106;148.0;0.23175347143196176;0.4433774663315136;0.19701875434966812;138.0;0.2924381928425934;0.39665440947240255;0.15776947408903036;148.0;0.2728064161445135;0.3551863321633314;0.12654803189288436;153.0;0.26310983190949117;0.23114135060407628;0.053575965916686834;151.0;0.23114278081453604;0.23063243763088306;0.05334456021400781;151.0;0.23080642472544718;0.23223714868786186;0.05408413653171536;151.0;0.23148534003113005;0.23121971804693642;0.05361429042783169;151.0;0.23108765458768948;0.3690198534303606;0.1364329555141107;139.0;0.26240271840121876
0.007198600169527079;5.196736873546113e-05;163.0;0.061898561342784195;12.0;0.13775614051865134;0.01903156913058725;168.0;0.1970011422290597;0.13760546258493048;0.01899089504281604;170.0;0.19013827345583326;0.13817735844885226;0.019150379879703174;169.0;0.18470359723970808;0.14776285457757843;0.02190332808808695;164.0;0.18614340862338463;0.16565099462502395;0.027529097737584322;157.0;0.19340053458705164;0.1868695140088312;0.03503433616685966;158.0;0.2033898745300451;0.1715161381858992;0.029505532024226806;165.0;0.21340345900307317;0.6251757827085234;0.39212002345695607;162.0;0.3560637808250189;0.5200126913530859;0.27129507955942195;161.0;0.32722938776140886;0.38526742641873607;0.14891101210921964;156.0;0.28654980680750003;0.3245156105869945;0.10564814937693867;154.0;0.26571979778428073;0.2587850832885008;0.06718322710508379;155.0;0.24464708854124223;0.23094952642467353;0.05350266188998068;167.0;0.23557118706825078;0.1902248817105631;0.03629798234169242;165.0;0.2184025894009158;0.008501084787199771;7.248932409596226e-05;162.0;0.06691565611687599;0.186808421337829;0.03500790091620208;161.0;0.22085825927067293;0.18826521310634964;0.03556051244571688;159.0;0.2195621723222549;0.20191352905846788;0.0409000207043477;158.0;0.22822272010550804;0.22741063253932445;0.051876756884482074;152.0;0.24297366661290887;0.24093502597506053;0.05823219566752215;151.0;0.251411338776307;0.21181081972661947;0.045010532672286045;149.0;0.23873472137979393;0.17959444103171704;0.03235933569281084;158.0;0.22314840279612932;0.17628283025377742;0.03117426559570204;155.0;0.2219249914551643;0.4249761247498359;0.18112782025997085;147.0;0.27876103557972437;0.37038919589399577;0.137533937658112;155.0;0.2599700970698734;0.33259566300444443;0.11087536696532858;159.0;0.2549473842153886;0.21698854303832005;0.04720959302388578;160.0;0.2227501050235362;0.21642909510743727;0.04696658652722894;160.0;0.22251093604545516;0.21804259067372286;0.04766044838963731;160.0;0.22312621410131145;0.21710610695363902;0.0472552693079796;160.0;0.22272146891925063;0.3453481558816172;0.11962262932802166;154.0;0.24441870484692194
0.006497084397690652;4.234932776115477e-05;146.0;0.05927643095366714;12.0;0.18996584119513163;0.036202838482966425;162.0;0.23584415240371928;0.18251342923672834;0.03341891122820317;159.0;0.22612604306456371;0.17728270936418475;0.031532133944505256;161.0;0.21899607808181185;0.18380839967595905;0.033896286265757976;154.0;0.2201138508761574;0.199896772023112;0.04008888415282038;155.0;0.22763793121115472;0.2204678428121439;0.048760701690117654;156.0;0.23855782272990184;0.2505085709598123;0.06295699193178647;164.0;0.2525310429965509;0.8813659162391125;0.7793473667086138;156.0;0.42330473332039437;0.7401770825684238;0.5496443581011976;149.0;0.39190201840897176;0.5538746119996623;0.3077690596276738;145.0;0.34657152857875007;0.47254616147883;0.22402923949960032;148.0;0.32379146124545843;0.3772262642044164;0.14276458515730703;153.0;0.2953526024545593;0.33171175418731313;0.11039235972515396;163.0;0.27943402968850894;0.2708089692142669;0.07357504833299652;166.0;0.25750240188104173;0.007985564244303977;6.396391240711188e-05;155.0;0.06495115709951492;0.18103371199377183;0.03280555705663225;149.0;0.2233266324649915;0.17118248754975715;0.02933495327299237;156.0;0.2137485843661371;0.1738686168747722;0.03026798887826936;158.0;0.2144685724269948;0.1872721248468377;0.035110816341169214;146.0;0.22035035131282518;0.19499332919578677;0.038105085917234736;142.0;0.2261544704244781;0.17020250018788494;0.02901978012882641;145.0;0.21892011113328658;0.14688035874569172;0.021587208792164032;147.0;0.21229858294907417;0.17765851493179188;0.031564290277596996;146.0;0.2251455197541398;0.3818171744912065;0.1455326361526441;148.0;0.2861575081087048;0.35707765421171594;0.1273417407640835;152.0;0.2748495690220638;0.3374276232883147;0.11386056764187502;157.0;0.26846389689902017;0.20678500830721255;0.04273684611112285;144.0;0.22706997957334268;0.20644203802165967;0.04260746268084682;145.0;0.22703020526593484;0.2078678381273936;0.043217217825354905;144.0;0.2274413585336266;0.20731705129150088;0.042984592446852876;145.0;0.2270996575470386;0.29675449481530297;0.0877787121803629;152.0;0.2543995965389991
0.006898567109678006;4.774333701165756e-05;152.0;0.06029030587897262;12.0;0.19812982185420244;0.039378281011015835;151.0;0.2455625379022593;0.18674157809170838;0.034983313019156144;153.0;0.23673647019647365;0.1812299620350044;0.0329512700779876;150.0;0.23081751472563902;0.18582894580362017;0.034645117710035506;150.0;0.23253837557137325;0.19902355460237323;0.03973904807047159;151.0;0.24167270375158897;0.22024650537580542;0.048665744724601084;161.0;0.2572843776946138;0.262050643694782;0.06888228252620625;154.0;0.2616643196379433;0.9541540275908541;0.9133323183090208;149.0;0.4457201971900012;0.7974121415089761;0.6379181615199065;142.0;0.408142728972626;0.5901805722570879;0.3494534859281304;135.0;0.35690357872281236;0.4965696052670086;0.24738805561444482;139.0;0.33181830611454877;0.3885392273330537;0.1514514903656289;143.0;0.302324595300047;0.3369429077414661;0.11389335062536321;150.0;0.28737029722587193;0.2768018096064327;0.0768581893361039;152.0;0.26812214917483135;0.008682697297591429;7.563530865023168e-05;162.0;0.06546717963417074;0.15616643855730133;0.024291745987499076;154.0;0.21527984408352369;0.15403469224226904;0.02362740515059607;161.0;0.20406965258985016;0.15893408841707227;0.02516270231589153;162.0;0.20421278562076076;0.1693421225922406;0.028601562589805504;158.0;0.20848759741124828;0.17458122905125717;0.03039236218454623;160.0;0.21449058431821794;0.1552933682866924;0.024067066415717923;160.0;0.20867385549093717;0.13813871710424264;0.019059640338432285;155.0;0.2033817839075819;0.1530197511640849;0.02333150383061883;149.0;0.21771381737031653;0.3392789135831012;0.11537369943944853;135.0;0.29002365167423805;0.32025077148698494;0.10284120416975405;136.0;0.27981844116681887;0.299675401758662;0.09004742860739531;143.0;0.2723684901950123;0.1808006923296176;0.03275078773126223;148.0;0.2271045696448444;0.180549659620173;0.032653876006977216;149.0;0.2270154090823967;0.1818455926364938;0.033122278816640816;149.0;0.22731642408622843;0.18119150070410886;0.03288772034435203;149.0;0.2271032525078594;0.26657253983754897;0.07117032662338539;140.0;0.2611515993051624
