rms_s1_ch1;var_s1_ch1;zcr_s1_ch1;wl_s1_ch1;rotule;rms_s1_ch2;var_s1_ch2;zcr_s1_ch2;wl_s1_ch2;rms_s1_ch3;var_s1_ch3;zcr_s1_ch3;wl_s1_ch3;rms_s1_ch4;var_s1_ch4;zcr_s1_ch4;wl_s1_ch4;rms_s1_ch5;var_s1_ch5;zcr_s1_ch5;wl_s1_ch5;rms_s1_ch6;var_s1_ch6;zcr_s1_ch6;wl_s1_ch6;rms_s1_ch7;var_s1_ch7;zcr_s1_ch7;wl_s1_ch7;rms_s1_ch8;var_s1_ch8;zcr_s1_ch8;wl_s1_ch8;rms_s1_ch9;var_s1_ch9;zcr_s1_ch9;wl_s1_ch9;rms_s1_ch10;var_s1_ch10;zcr_s1_ch10;wl_s1_ch10;rms_s1_ch11;var_s1_ch11;zcr_s1_ch11;wl_s1_ch11;rms_s1_ch12;var_s1_ch12;zcr_s1_ch12;wl_s1_ch12;rms_s1_ch13;var_s1_ch13;zcr_s1_ch13;wl_s1_ch13;rms_s1_ch14;var_s1_ch14;zcr_s1_ch14;wl_s1_ch14;rms_s1_ch15;var_s1_ch15;zcr_s1_ch15;wl_s1_ch15;rms_s1_ch16;var_s1_ch16;zcr_s1_ch16;wl_s1_ch16;rms_s2_ch1;var_s2_ch1;zcr_s2_ch1;wl_s2_ch1;rms_s2_ch2;var_s2_ch2;zcr_s2_ch2;wl_s2_ch2;rms_s2_ch3;var_s2_ch3;zcr_s2_ch3;wl_s2_ch3;rms_s2_ch4;var_s2_ch4;zcr_s2_ch4;wl_s2_ch4;rms_s2_ch5;var_s2_ch5;zcr_s2_ch5;wl_s2_ch5;rms_s2_ch6;var_s2_ch6;zcr_s2_ch6;wl_s2_ch6;rms_s2_ch7;var_s2_ch7;zcr_s2_ch7;wl_s2_ch7;rms_s2_ch8;var_s2_ch8;zcr_s2_ch8;wl_s2_ch8;rms_s2_ch9;var_s2_ch9;zcr_s2_ch9;wl_s2_ch9;rms_s2_ch10;var_s2_ch10;zcr_s2_ch10;wl_s2_ch10;rms_s2_ch11;var_s2_ch11;zcr_s2_ch11;wl_s2_ch11;rms_s2_ch12;var_s2_ch12;zcr_s2_ch12;wl_s2_ch12;rms_s2_ch13;var_s2_ch13;zcr_s2_ch13;wl_s2_ch13;rms_s2_ch14;var_s2_ch14;zcr_s2_ch14;wl_s2_ch14;rms_s2_ch15;var_s2_ch15;zcr_s2_ch15;wl_s2_ch15;rms_s2_ch16;var_s2_ch16;zcr_s2_ch16;wl_s2_ch16
0.14140414763674172;0.020060000219019682;176.0;0.2339833843763026;12.0;0.15328954013175913;0.023574358894067497;174.0;0.23692186851803043;0.1641935821949912;0.02704679883693357;166.0;0.23820823843581468;0.16798995632759708;0.028312395211004874;160.0;0.23940900042192054;0.16253237736683016;0.02650206029960294;162.0;0.2382454957924144;0.15351005384475605;0.023640350997487087;166.0;0.23584760292201068;0.1433204308437761;0.020605870294062974;167.0;0.23158344247913815;0.13257351062146963;0.01763298881438393;174.0;0.2296864985768735;0.12394453915553678;0.015412441630967699;172.0;0.22609837436401384;0.12564331136864587;0.015835965077835884;179.0;0.22863206264863786;0.1293033633304972;0.01677280688892348;177.0;0.23014187985021528;0.13571003690122393;0.018477388996101032;174.0;0.23291683217016138;0.14261868439312755;0.020406306556227626;176.0;0.23730850045767415;0.14665971517555504;0.02157925949715537;173.0;0.2387688609079639;0.13797075335643372;0.019098090095798576;168.0;0.23472375826066524;0.011415312399167989;0.0001307180303097137;177.0;0.07983159725669617;0.24580136754645876;0.06053428491209607;150.0;0.26685899396336626;0.2683392119070019;0.07216703122293075;152.0;0.2727352587489489;0.2870123688836208;0.08256500156570547;156.0;0.2763522236031729;0.2968974659378457;0.08838164676269776;156.0;0.27768241139328825;0.2893767638373048;0.08397608332769314;157.0;0.27385269861984907;0.26862408035572616;0.07235492326971427;152.0;0.2677782188062344;0.24454182891858403;0.059969791685400384;153.0;0.26066190154604224;0.2157629055280803;0.04662265717680451;157.0;0.25752583338682;0.19666775810774137;0.038785096932248804;162.0;0.24922696616958226;0.1995974965684406;0.03995638596085217;159.0;0.24993921654923087;0.20755056429480317;0.0431973310639076;155.0;0.25062019835697585;0.21917607884956422;0.04817307824044446;161.0;0.25328539269872774;0.23514524235887774;0.05545114030252933;165.0;0.2571752778175724;0.24875176001870442;0.06204699778800455;163.0;0.2580110219527713;0.26029354907716756;0.06791393433358044;166.0;0.26132387333124707;0.19788635547203975;0.039264667091308866;158.0;0.24894902122530868
0.1189088331338981;0.014166348536425939;169.0;0.21906591099189876;12.0;0.12830066056287914;0.016503086893231277;164.0;0.223546813773996;0.13817745364705958;0.019152503041529777;162.0;0.22721597222616574;0.14299462137317628;0.020511132909753156;156.0;0.2296587158667781;0.14139301433802137;0.020056732351603417;158.0;0.22712149601334436;0.13499999645582225;0.018284467961494473;159.0;0.22353072881694716;0.1259491248385217;0.0159118321165577;160.0;0.21834097229677002;0.11074730938950834;0.012284378893126663;171.0;0.21451515367179655;0.11046014445060055;0.012227867196462188;158.0;0.21227838206607622;0.11387157782882637;0.012993410205639487;160.0;0.2137915602724609;0.11239808165336056;0.01264779912502564;156.0;0.21270875411916995;0.11101910010450142;0.012333110498676688;159.0;0.21354608604744998;0.11132894131674352;0.01240822056329371;163.0;0.21639048628009322;0.11287806720973116;0.012749234451798193;167.0;0.21710793924442132;0.11048692206015684;0.01221454755730174;166.0;0.21460918271581972;0.01119001316914761;0.00012562411366721782;173.0;0.08119376520839579;0.24028622890407803;0.05790985342963298;145.0;0.27446319561020915;0.2584816629906692;0.06700702573708928;148.0;0.2779391517898292;0.27380090558003567;0.07516557434083088;155.0;0.2794736383873683;0.28224259508130883;0.07985206418702342;160.0;0.28018293738596134;0.27601885405045024;0.07636740088128516;163.0;0.27726234374569647;0.2553935511804666;0.0653900777442232;156.0;0.2715534221288261;0.23068709366013015;0.05336760454439214;154.0;0.26439658660999477;0.21901727445678282;0.04811611036135768;146.0;0.26818162503181203;0.18704542358311593;0.03509726220999807;149.0;0.2552316621755426;0.19108035822707561;0.036628820389207076;148.0;0.25489588332797936;0.2003287239582082;0.04025468549686283;149.0;0.2548396065682127;0.21320350910590924;0.04559255162418555;152.0;0.2571921514249722;0.23221772063850335;0.054093972449609805;154.0;0.26234046191832167;0.24696135832186403;0.06118772993613721;154.0;0.26574081294966334;0.2628881129474098;0.06933599751130495;145.0;0.2694637210876814;0.18794135534779427;0.03543313460170099;149.0;0.255336091369107
0.10479731803148612;0.011013294110391269;164.0;0.21314074367669303;12.0;0.1128897384971375;0.012778276610983283;164.0;0.2172425925212827;0.11998635882628143;0.014436793086125763;164.0;0.2198311223311515;0.12625121228622643;0.015981098640313;169.0;0.2215342294263326;0.1267949378309377;0.016121107491309072;172.0;0.21903104669817053;0.12149701281734428;0.014802749557452654;172.0;0.21465181691025093;0.11297264664426282;0.012796044574804882;171.0;0.20939274746941308;0.09635913381738224;0.009310745288120313;164.0;0.209414494525337;0.09575071399588397;0.00919553041755981;155.0;0.2022352984633791;0.09758905273144264;0.009553918731170662;157.0;0.2027745485005213;0.09455946774348915;0.008969277385136172;155.0;0.20057318489648565;0.09374694233874799;0.008810653860840853;150.0;0.20146513770142033;0.09250729368423466;0.008581061483270975;152.0;0.20350777924079075;0.09153047905575834;0.008401321065882672;163.0;0.204249276814807;0.09312066354610818;0.00869555716363933;161.0;0.20767839672065203;0.011106418852045889;0.000123573925850044;155.0;0.07849829785799571;0.15774663066683867;0.024916357437886946;141.0;0.2596428682768832;0.16435551065519519;0.0270627448212084;147.0;0.2626432741215367;0.168571218847676;0.028466748384678543;157.0;0.26508288543955494;0.17143179311010476;0.02946525984984625;164.0;0.2653867881519822;0.171674053401336;0.02954956275844148;165.0;0.2636658583256704;0.16153477796799337;0.026164053484776975;161.0;0.2589914573550369;0.14659841458177195;0.0215500760979547;156.0;0.25271379337425415;0.15068440062392732;0.022735145387830072;139.0;0.25433855226914237;0.12518310020309922;0.01570641749987052;147.0;0.24482935268331185;0.12944513663735277;0.01679213236764817;147.0;0.2450145359420581;0.13550743336333126;0.018399761781517896;150.0;0.24479954566846288;0.14581199243303625;0.021308771558299446;149.0;0.24639837142124446;0.16175039321950965;0.02622024672741815;151.0;0.25086734265708105;0.16446924429288454;0.027114577154489696;146.0;0.25478415058803044;0.1764051073458104;0.031182554650844515;132.0;0.25854732803557223;0.12503080246752277;0.01566978152083673;150.0;0.24432800913259714
0.08464608311017903;0.0071872173859561924;159.0;0.20328453665939233;12.0;0.08677306279646989;0.007554124987290787;165.0;0.20285577342306949;0.08987014896025637;0.00810298693690842;171.0;0.20213327456297375;0.09375520744807503;0.008816886976382608;173.0;0.2019383599468267;0.09461481374941132;0.00897782602863259;176.0;0.20041922199393464;0.09285928631132619;0.008649051541550023;172.0;0.19803466472355832;0.08723399069651325;0.007633991124365613;176.0;0.19431955722491356;0.080877703886972;0.006561876545119423;160.0;0.20104197675603697;0.07753971649122993;0.00603013505116804;148.0;0.192890960750508;0.08172224689837627;0.00669793572390035;152.0;0.19612986782535535;0.08423897141193298;0.007114708790411774;154.0;0.19651356071307338;0.08978300720013971;0.008078039950029686;147.0;0.19985774465763917;0.09100784222204089;0.008301250064908615;153.0;0.20261122700208498;0.08604848269833111;0.007424096868565454;156.0;0.20202757404197738;0.08308792717315569;0.006925690485446256;159.0;0.20327463211644778;0.01192988351992623;0.00014277784486536714;159.0;0.07987306733331007;0.12636133246869924;0.01601394278130787;154.0;0.24025507500046644;0.13398108861007021;0.017999203522029068;159.0;0.24107442241309307;0.14211124330800062;0.020241277421329612;166.0;0.242983617024065;0.14564099403712696;0.02126212023769457;165.0;0.2441905515806293;0.1460266945001496;0.021364007137276847;162.0;0.24302497263703293;0.140051833789357;0.019663416724018373;163.0;0.2386546494601255;0.1309412125419504;0.017192896947010174;159.0;0.23344223606358788;0.12491876271451227;0.015653017544360458;150.0;0.2378400776851814;0.11295892197150377;0.012798667187577382;158.0;0.2256546324346134;0.11531665529472367;0.013334981378471028;152.0;0.22644835161600563;0.11957870668785983;0.014340520913661609;155.0;0.22697496959299582;0.12674894867262915;0.016113247555171618;157.0;0.22861607485030097;0.13900011884160954;0.01937554166678142;154.0;0.2344296080933515;0.14193088111171434;0.020206692881962817;152.0;0.2386898256746587;0.14608795429666335;0.02141046722282726;148.0;0.24208803486372182;0.11266166731967306;0.01273220919865564;159.0;0.22510226478889436
0.07640104781799867;0.005853670230167367;160.0;0.18703590764849484;12.0;0.07630764186279744;0.005838428064943859;161.0;0.18582778081771759;0.07804124025507392;0.006103806929445844;171.0;0.18473105055074787;0.08096659983256443;0.006571855680630388;161.0;0.18499087909263814;0.08434519729747178;0.007131393685324159;159.0;0.18597859872288044;0.08576584188504327;0.007373928476068968;155.0;0.18382504663586838;0.07969578452791932;0.006366423342465402;160.0;0.18094230514346898;0.07610111779446187;0.005808775688844465;165.0;0.18579074213303853;0.07236099792074685;0.005250475034245017;160.0;0.1777813149236556;0.07499698326804541;0.005637541159226474;160.0;0.1808643393511102;0.07668870271066014;0.005895070046384787;158.0;0.18173535159805224;0.08123597677586339;0.00661464061574669;155.0;0.1858459435833029;0.08253146770699639;0.006831416784914978;163.0;0.18857714026649125;0.08184177001918362;0.006717580615825246;158.0;0.1882765618208821;0.07854338435278885;0.006189155520694562;159.0;0.1857007822009249;0.01160614770910136;0.00013506988428136027;163.0;0.08177542405194922;0.09031287898510551;0.008177281449179553;145.0;0.19620607170707838;0.09920646354355911;0.009859706124575424;153.0;0.19649003568265472;0.10923150967288894;0.011951176459709088;155.0;0.2006115044577282;0.11483474415573712;0.013212287687402848;153.0;0.2034448854335483;0.11667746968952102;0.013642558949665465;154.0;0.2040260191750387;0.11176809598124314;0.012517131913782066;160.0;0.20086331950140746;0.1013168499903194;0.010285992210963952;160.0;0.19513332915510126;0.09184910084559929;0.008455088333972944;142.0;0.19599587814327715;0.07983507147604506;0.00638817126437891;163.0;0.1867372324589746;0.0796253434016428;0.006353668887115326;158.0;0.18645780488240352;0.08187483884276227;0.0067217866289112594;155.0;0.18723341626059445;0.0858824300748657;0.007396058476397982;151.0;0.18881091982997397;0.09506176641568874;0.00906277917780473;148.0;0.19432164812864655;0.10211566923867643;0.010450237593220864;149.0;0.1989901842613839;0.10632850740770804;0.011328040523239854;143.0;0.2034029014552215;0.08121260378389905;0.006609064476467956;158.0;0.1873253230535195
0.06393567439204029;0.004100974721856077;155.0;0.16909279938773253;12.0;0.06467642138879053;0.004196521659564081;158.0;0.1702808691664796;0.06685156299627149;0.004483762150117176;164.0;0.17036330712411654;0.07159778324144207;0.005142502049917883;159.0;0.1702768934741702;0.07629824786483133;0.005840050638084091;153.0;0.17126351729355718;0.07663475259020094;0.005891615431056108;157.0;0.16786063277731683;0.07071637346220108;0.005016594350578448;159.0;0.16521125138720277;0.0639158255455599;0.004098604171365951;156.0;0.16728450201674122;0.060459266692876566;0.003666803748897167;168.0;0.1596265581273772;0.06148185785544295;0.003791446972760013;165.0;0.16094588464539802;0.06301639279567313;0.003983319470272921;153.0;0.1603753205816896;0.06601285234647222;0.004370545533672344;148.0;0.1626583175921673;0.06801347525544826;0.004639925806523286;151.0;0.16638203822331793;0.06845831334074139;0.004701796933487169;158.0;0.16647396351371938;0.06708713661996654;0.004515414903410189;153.0;0.16722622329754427;0.010991026400057315;0.00012117779426333972;156.0;0.08241244567305413;0.07043419356705204;0.004975765639518152;137.0;0.17454018838868288;0.07944795754092991;0.006332187216375358;144.0;0.1765093292237699;0.088171457125045;0.007799460344680565;142.0;0.1808683465227205;0.09264877545273507;0.008611803880285087;146.0;0.18268755471519585;0.09231402856104552;0.008549807805354671;150.0;0.1830617776212344;0.08591206714629863;0.007405029511496108;156.0;0.18016999787667504;0.07564368873007889;0.005740656824210448;155.0;0.174126091098752;0.06535753087623192;0.004281376009003089;147.0;0.1722883442329508;0.06254225065376069;0.0039233230453788685;157.0;0.16808209863807705;0.06194435172800024;0.003848857282422727;157.0;0.16761104405327054;0.06304892560125522;0.003987329905415982;152.0;0.16742247317945466;0.06461430132027053;0.004186044950159644;145.0;0.16731509162403274;0.06832965444214992;0.004683685587519408;148.0;0.16870959567275312;0.07362834656147531;0.005437541919250391;147.0;0.17385109375836322;0.08172672166389634;0.0067006042400191415;142.0;0.18168539930145755;0.06295670910019707;0.003975568574620844;152.0;0.1676816909945301
0.05406243215308439;0.0029313562313218284;152.0;0.16160069028121507;12.0;0.06049881352916848;0.003670728986117689;155.0;0.16585970351152632;0.06573256992771902;0.004334293047710669;154.0;0.17015150351890346;0.06914655748656799;0.004796610123184688;158.0;0.1712279906772859;0.06946047270692796;0.004840085685108396;154.0;0.16912677644808208;0.06475262771717712;0.004206308493485118;158.0;0.16496188271517406;0.058883268616017836;0.0034784777552541515;159.0;0.16117887571449474;0.05114673104529316;0.002623124841977828;155.0;0.15895536709398284;0.0487526130849507;0.0023842215455364257;158.0;0.15228987423462978;0.05203396837451076;0.0027161231474488847;154.0;0.15300522499224956;0.05652882657213926;0.003205781981847099;147.0;0.1542435243556059;0.06290324349869444;0.003968545116568816;144.0;0.15729025046501421;0.06606371108300672;0.004375198232991015;139.0;0.16135849463698798;0.060549522921766415;0.0036746616297925728;147.0;0.1581806967555478;0.053899601772612604;0.002909100891267241;152.0;0.1578293908694665;0.011346239415968747;0.00012912356968413025;162.0;0.08420601044380883;0.06938958637077033;0.00483005247896497;148.0;0.17749978118962353;0.07694115817405976;0.005937534042307948;151.0;0.17896410603083024;0.08629370559930351;0.0074647721608921075;156.0;0.1810667140442849;0.09139660793692282;0.00837074403720401;159.0;0.18152237564572654;0.09132825499932266;0.00835722035166307;156.0;0.18101120382091387;0.08458267626101527;0.0071691201969858965;159.0;0.17671209999211368;0.0743377875872026;0.005536695395066089;157.0;0.17065529918901468;0.06618376500724212;0.0043941492519206805;158.0;0.1736008929851568;0.06271857200912492;0.003942210741280879;156.0;0.16516613061868166;0.0630735250473819;0.003985680216407752;155.0;0.16540857451727178;0.06492944547832911;0.004225362824628176;152.0;0.1646902148481055;0.06808737039582004;0.004647338883267898;155.0;0.16531786118805797;0.07506346578575472;0.005646932445723662;153.0;0.16815310906551006;0.0840933947074266;0.007089449983349681;154.0;0.17350047578888417;0.09374960919412528;0.008811311752882776;144.0;0.1810278262871043;0.06263732247901493;0.003930421359849239;153.0;0.16424008191627743
0.05702961654236538;0.00326215868526743;155.0;0.15628471188538237;12.0;0.06003073333787196;0.0036145289985983573;157.0;0.15772657154103364;0.0624273381831984;0.00390925444592688;149.0;0.16010952856382915;0.06581272541192827;0.004345207525949601;154.0;0.1622769581248006;0.06770916539685856;0.004599169166730444;154.0;0.161627197767501;0.06440294584444126;0.004161239099713257;155.0;0.15909525002966796;0.056459976833432936;0.0031978439433138664;159.0;0.1545304884799165;0.05388352196467872;0.00291278161858291;160.0;0.1535745084773161;0.051732422479716995;0.0026843376759628284;157.0;0.14702711031666268;0.056624018313476174;0.0032164829146263674;158.0;0.14885181782639056;0.061210253357679864;0.00375885310303932;163.0;0.15144061657324265;0.06826475417116919;0.004675211748440022;161.0;0.1562263501747402;0.07053247560987622;0.004990154055510401;158.0;0.1602022122635062;0.0642569204015367;0.00414211330504302;161.0;0.158294157049044;0.056720465579785724;0.003227656498831483;161.0;0.15384162060609266;0.011315752462598153;0.00012845157088745755;163.0;0.08008960671880778;0.0672020863484312;0.004530522289107526;163.0;0.17662398699397014;0.0728595540432058;0.005325867815296152;163.0;0.17870309392067046;0.07792883979091085;0.00609237744710351;164.0;0.18050676548982936;0.07840618578123401;0.006166313088261312;164.0;0.17946923982091958;0.07727878981710058;0.00598691717061927;157.0;0.17723216590391877;0.071926955557162;0.005186192349825307;157.0;0.17097031350432287;0.06408914129136038;0.004117007836541682;159.0;0.16599326535259054;0.06375735743621319;0.004077854034020144;164.0;0.17231964344513215;0.05503878310568845;0.0030366281969442036;159.0;0.1618907737819162;0.05544486686512519;0.00308106046555216;161.0;0.1609008707393931;0.05726755675011286;0.0032880106405137545;159.0;0.15981423375563336;0.061168171416587376;0.0037509988116235893;161.0;0.16016987599027363;0.07025014000189558;0.0049493088313417016;163.0;0.1642278493120205;0.07832652399390856;0.006153512604991183;164.0;0.16900870647711813;0.08245007221682518;0.006815909826056288;158.0;0.17255733166790735;0.054439635106433445;0.002969227832384348;156.0;0.16044662432069917
0.059057079563826456;0.0034981950985474384;158.0;0.15441101938508653;12.0;0.05846704197993782;0.0034280821542766295;157.0;0.156037910485101;0.05976738720324818;0.003583069756119354;154.0;0.1565861843745021;0.06560278003653781;0.004316379671231634;155.0;0.15692331060198758;0.07062838198370193;0.005001371888373183;157.0;0.15851950560017752;0.07068878943334138;0.005010834873324816;158.0;0.15752998442472205;0.06428995855175755;0.004144267756339624;164.0;0.15232769460248052;0.057510523252699564;0.0033160596770228892;161.0;0.15213188909612257;0.06258506540071425;0.003926703914719291;158.0;0.14962466789424783;0.06786902270604425;0.004617110400599108;163.0;0.15410339359387462;0.07303698788397499;0.0053456571548327345;172.0;0.15636651148993597;0.07669167736000125;0.00588968274201716;162.0;0.1592884090363928;0.07419241211074111;0.005512487633101067;157.0;0.16035710387232352;0.06814584467775371;0.004654355813828782;164.0;0.15891222804226615;0.061756469310901986;0.003823223117046005;160.0;0.15409093909956348;0.011087303737463021;0.00012325734154835954;151.0;0.07585974013385689;0.0630148023482301;0.003983525949409614;161.0;0.16923660790508288;0.06597500982480287;0.004365332647207358;163.0;0.17076934319421122;0.06826872398373415;0.004673876353201074;163.0;0.1716305152302061;0.06865388043322816;0.004726128089739803;159.0;0.17086454062645381;0.06936769529517406;0.004825756617841846;154.0;0.1696677881884809;0.06557781050182794;0.004312517408480832;151.0;0.1659842581633262;0.05739676123898142;0.003303457226788713;157.0;0.16070097463878735;0.05798248475419643;0.0033729379464749075;165.0;0.16491783072637342;0.048464388155146663;0.0023552715871122667;154.0;0.15367531074296836;0.0475893800176516;0.002271271829155022;160.0;0.1516854919287657;0.047818735624389534;0.0022937592743170992;158.0;0.15074443576936417;0.04983306558278677;0.0024911821943412967;152.0;0.15046192999054087;0.05545471515496724;0.0030849385424561635;159.0;0.1518791051571109;0.05853758818649791;0.0034377380760457973;160.0;0.154704907895179;0.06100108836651038;0.0037332934568563604;162.0;0.15961525143026276;0.04775275665074207;0.0022870766383268856;158.0;0.15268469253631864
0.05545083533673632;0.0030845487105913318;152.0;0.1471582865318633;12.0;0.05654271588426215;0.003207525994895338;149.0;0.14960306827814765;0.06154331248422445;0.003799262377356996;150.0;0.1522391700505955;0.07040636629068307;0.004970210754028727;154.0;0.15272793740352933;0.07893994650538495;0.006246577682143707;162.0;0.15573458348618047;0.07846267822635937;0.0061716664493062295;160.0;0.1544468645593116;0.06956011088220289;0.004853237896002544;154.0;0.14830389526193435;0.05446087569498649;0.00297494801784111;161.0;0.14424126661661338;0.06579513554294814;0.00434220867024045;157.0;0.14695762940105514;0.07046649068747705;0.004980491242536478;159.0;0.15166434854660374;0.0740509795942637;0.0054990549376039395;160.0;0.15161935883132968;0.07621413146947663;0.005823712394013095;144.0;0.15326006710480072;0.07449042067576964;0.005564886858388176;134.0;0.1535407712521242;0.06989342715875782;0.004898028911982951;155.0;0.15220639344225553;0.06024376711873891;0.003639885768604057;153.0;0.14701837866677198;0.011151325921801028;0.0001247328622139777;147.0;0.07627435245751227;0.156009575556505;0.024418881724798936;146.0;0.20113677838601016;0.16555159342721962;0.027496980566561857;154.0;0.20264791746279115;0.16809973085723678;0.028348326673293935;153.0;0.20229535177644142;0.16335925869452272;0.026771135166423068;151.0;0.1994416810331646;0.15742652929417658;0.024861962254665616;151.0;0.19678244046446336;0.15062727870027573;0.022760553015204233;144.0;0.19593668243400145;0.14257440548102188;0.020392341100089823;148.0;0.19155677820223818;0.14740495530062006;0.021799738040808248;148.0;0.19597670823998667;0.1422089216953278;0.020289717943801352;143.0;0.1886471433304051;0.15234339158336047;0.023284695164951293;149.0;0.19010240380520674;0.16950832871746582;0.028827232877953544;144.0;0.1934626202041674;0.1877270403182473;0.03535698548779164;139.0;0.19626065057227352;0.20985287695521893;0.04418197289772108;141.0;0.20096238707583708;0.2249726463728407;0.05077808382128792;140.0;0.20704965837829617;0.23200760671828002;0.05400409067303349;138.0;0.2122674082616098;0.13396122403873292;0.018004447273884047;148.0;0.18647339303293192
0.1333554925294471;0.01781623299575682;144.0;0.18489365958174547;12.0;0.1472101672277143;0.0217103568058685;146.0;0.18863562615640334;0.15773563295903892;0.02493246726709756;145.0;0.1904881942493569;0.15898470006346935;0.025329009146027877;146.0;0.19064613784430573;0.153046928651561;0.023477237542715607;154.0;0.19007047439086674;0.14231966757598277;0.02030262744391874;150.0;0.1864649400887948;0.1268965890780358;0.01614021975946528;147.0;0.1805732058219089;0.1269332243627643;0.01614430041394661;149.0;0.18157902770619705;0.11373938955196819;0.012958171710542952;145.0;0.17729461011416067;0.11815345633789498;0.01397801576122976;146.0;0.17897516820288714;0.12465128982593833;0.015548231646851431;145.0;0.17768270971691064;0.13869156249176096;0.019236413435673675;137.0;0.1825981659387901;0.16021843238276962;0.025693241916904353;135.0;0.1909216630856574;0.1704521320448878;0.029102348075450545;143.0;0.19378362162822044;0.14456368158010144;0.020943512310889707;147.0;0.18577131788124077;0.01146374940468151;0.00013184673371505404;147.0;0.07392463037767712;0.20361470766270742;0.04159339531550284;144.0;0.23828039753542465;0.2214920511664623;0.04921627841725351;150.0;0.24288067369317123;0.23175162554012954;0.0538839725279162;147.0;0.24620709775788233;0.22948655637283674;0.052836251061068866;149.0;0.24537047912545729;0.21954211163958892;0.04835636166339697;147.0;0.24237393985740538;0.20557603260241777;0.04239924126884774;140.0;0.23820946155937162;0.1915898843759753;0.03682562683574144;140.0;0.23177430571949445;0.18796690878642555;0.035446566121602165;139.0;0.23132080955799866;0.17764222635693466;0.031657564330666056;142.0;0.22427124272358365;0.1884909037120979;0.03564040019623016;143.0;0.2264209330402417;0.20579517922985927;0.04248670814394244;139.0;0.22989878078596743;0.22490728151570727;0.05074084729524896;139.0;0.23365553887960905;0.2483315423487619;0.061859576465818876;137.0;0.23972996496221674;0.2622496191290785;0.06899081073903243;133.0;0.24663948364354651;0.2681262883481504;0.07211452382358594;130.0;0.24896224329736555;0.1706750140292267;0.02922374638104251;142.0;0.22316723119137247
0.20291706998693218;0.04120421532349889;153.0;0.2455139164538785;12.0;0.23024411338578557;0.053062546756869305;147.0;0.25395040914051237;0.24511327632512006;0.0601282403629523;149.0;0.2580495372852936;0.24185675868110454;0.058601742527554984;154.0;0.25609072373693414;0.22699974497105713;0.05166062251362016;160.0;0.2507379778932947;0.20806454849228725;0.04341005715585326;159.0;0.24429171658881096;0.18856023482176656;0.03563905334071949;163.0;0.23856482136850185;0.18210213164409225;0.03319614275185559;154.0;0.238477189864726;0.16825537161487755;0.02836971969134946;156.0;0.230671737135875;0.17421106846886714;0.03041276934224887;150.0;0.23135341989783711;0.18253710133854012;0.03337754485548485;156.0;0.23229120958443206;0.19730725345405173;0.039015213423947835;152.0;0.23546777277660358;0.21885526644680395;0.04798274814824255;154.0;0.24261378829759028;0.22864383175713918;0.052320049159619034;141.0;0.24424905581569148;0.19783717033090806;0.03917440140686415;158.0;0.23931789587424984;0.012212855321136749;0.0001496347368713667;152.0;0.0756751443263525;0.1774380414189951;0.03157896462612933;153.0;0.25040451163920985;0.19702341464577577;0.038938419976347914;153.0;0.2583195975630562;0.21343145109486863;0.045692291139189274;153.0;0.26662409811885635;0.21695118299261965;0.04720676094847435;150.0;0.268465281809411;0.21004228114850265;0.04425622623871063;148.0;0.266016084662639;0.19496143260802773;0.038132043521318854;150.0;0.25827406084133586;0.1798062338634476;0.03243125567478074;151.0;0.2506153956649152;0.16219876453512616;0.02639446562617752;156.0;0.24424604713785011;0.15302013882092136;0.023488556036347714;152.0;0.2355242514271655;0.1586533211058104;0.025250512698267624;151.0;0.23572116707772028;0.16880848928195594;0.0285845739854606;148.0;0.23769775706033358;0.1805018869878971;0.03268147706282292;151.0;0.23997752353417345;0.19219775365784927;0.03705420949126145;150.0;0.24320455397701862;0.19176008622838273;0.036887910750022776;146.0;0.24776563148381492;0.19905464193135605;0.03975257846719613;146.0;0.2539974858799051;0.15202392691837757;0.023184528958541277;155.0;0.23667218425834047
0.18374589943463848;0.03380478505688364;171.0;0.23772832677464542;12.0;0.21542066959409684;0.04644280480675707;164.0;0.24639627406656933;0.23055896980476162;0.05322005684266913;166.0;0.25133663669184386;0.2223106818047535;0.0494757648488833;170.0;0.24937456508290995;0.20539533692067596;0.04224712849083284;173.0;0.24417464271247522;0.18711722715936924;0.03507779863294225;169.0;0.23752488780413433;0.16899446345310418;0.028627115273537406;171.0;0.2327179026855977;0.15845093839366847;0.025129496200206818;173.0;0.2297792736443107;0.14898303060505066;0.02223806036402204;175.0;0.22405004654530897;0.15393971435641046;0.023726150424007345;168.0;0.2243990435727424;0.16105526149100705;0.025974380139374555;176.0;0.2255990361061558;0.17052887084641372;0.029073862049169914;172.0;0.22590396724490822;0.18551037584383584;0.03441244328516061;170.0;0.230107249213739;0.19278797640930387;0.037203509784957296;162.0;0.23032336332968567;0.16877256961311723;0.02851505789748775;174.0;0.23001958529018082;0.011850601003109794;0.00014086344833823356;154.0;0.07592968782288177;0.14795070178299372;0.02195626667569605;157.0;0.2472058328540136;0.16122715919609923;0.026070374526978954;152.0;0.253510207360408;0.17234032944241154;0.02978733286916518;153.0;0.25884954635565616;0.1757441468314334;0.030973616371534392;152.0;0.25989903110102436;0.1732420748394262;0.030097199780546376;155.0;0.2579351020523324;0.16409451821109158;0.0270066199369884;163.0;0.2518351878340622;0.15197793257211922;0.023171151402143205;158.0;0.24498868208085223;0.14573913804334426;0.021305915951548616;158.0;0.24604180348845409;0.13511561833826802;0.018315483514234152;156.0;0.23500790802950505;0.14062382014353586;0.019839462355469642;156.0;0.2359594624971714;0.1523458062209224;0.023285110537719606;153.0;0.23920680588724622;0.1668865173864401;0.027942080430811707;154.0;0.24358110321706813;0.18405626306777828;0.033987373202075684;155.0;0.24910405289623383;0.18881217721774968;0.035766204794165694;153.0;0.2538666456025015;0.20462328389661727;0.04200641705901996;149.0;0.26356355443457796;0.13315664903546118;0.01778762315805263;159.0;0.234638222368475
0.11491948692531415;0.013178125049877703;152.0;0.18976177172583286;12.0;0.13670828504631805;0.01863740686019085;146.0;0.19454208811488014;0.1475629889276426;0.021710629077515312;145.0;0.19662684167432315;0.1387119953511441;0.01921498482928116;151.0;0.19535499901864464;0.12502676572900984;0.015626384554539983;160.0;0.19241788718990924;0.11436144175030818;0.013092168576945427;154.0;0.18821239038018323;0.10370202187482189;0.010768673536092614;159.0;0.18530587700404727;0.10222577469547017;0.010427270680962485;157.0;0.1863725960848227;0.09086612841516449;0.008270650671436135;161.0;0.17983587195581063;0.09264182136331396;0.00859572380850724;158.0;0.1799063406485709;0.0977818352546941;0.009580251373694398;161.0;0.18082145051663914;0.10498725978800606;0.011044965128628577;155.0;0.18174357667550625;0.12134757599440031;0.014740287703578431;154.0;0.18639493713679686;0.13074402394861626;0.017089274719704128;149.0;0.18759974430758716;0.11475012625740534;0.01314586389025131;152.0;0.1874726405765649;0.011105535972259373;0.00012366318541815233;158.0;0.07472041499912162;0.11397533054310993;0.01302555347058274;162.0;0.221334605442584;0.12294431794018734;0.015160583694883756;158.0;0.22440828099887586;0.13155868862932266;0.017363064653548265;155.0;0.22662761896030303;0.1368187647332266;0.01878012581855199;150.0;0.2273645165889019;0.13801605104246564;0.019110670748225714;151.0;0.22623211496688123;0.13125642042742158;0.017284106468374243;157.0;0.2229906927104597;0.11687848833372994;0.013704801623126595;154.0;0.21575880209196202;0.11973320828327548;0.014382498690131772;150.0;0.22082909971980863;0.10281815636267908;0.010606310719390727;154.0;0.209556742052153;0.10632555104654101;0.011342155462866106;152.0;0.21117055856555492;0.11355801310835456;0.012937720695823912;156.0;0.21315302739975417;0.12519847977459173;0.01572600895999838;154.0;0.21758743365548466;0.14326713160992016;0.02059221581116355;157.0;0.22518940218080977;0.1554643853135386;0.02424761757349304;154.0;0.23417469343822514;0.17171905159147977;0.029583785165825115;144.0;0.24458675680885492;0.10099918229377271;0.01023435242019347;156.0;0.20879175398214228
0.07912181935573975;0.006266440664544911;146.0;0.1743184871275652;12.0;0.08666754004202855;0.007511736605479034;142.0;0.17753792126546286;0.09050878626752148;0.008196611619159353;138.0;0.1766944723531729;0.08922604812546622;0.007964734575065555;144.0;0.1742030773886376;0.08514728900773129;0.007262467967186385;153.0;0.17283360821194438;0.07957005277259935;0.0063438002758728395;153.0;0.1706251330937156;0.07407510734126803;0.005498596526507422;157.0;0.16744214186428794;0.07356688439070923;0.005419682615501533;151.0;0.16967975187519502;0.06875835443722758;0.004740091035310245;158.0;0.1624283127622457;0.069994758634356;0.004910152960096101;149.0;0.16289449535979877;0.07253554739099169;0.005270867786421891;155.0;0.16472730105194852;0.07925051602138934;0.006293972685143271;153.0;0.16867332985887518;0.09011218864719872;0.008136014903345718;148.0;0.17441821237495198;0.09324761238850163;0.00871083754628562;146.0;0.17422910861783655;0.08452538219180629;0.007154925472806213;143.0;0.17088720328799212;0.011556311450967617;0.00013390773444057097;163.0;0.07925044293333079;0.08667826142974695;0.007532267931800079;160.0;0.20076462976936676;0.09195011843452303;0.008476574015061526;162.0;0.20279712221714521;0.10105003772594426;0.010240989441846529;158.0;0.20556717893491466;0.10835301753159006;0.011777591915340828;153.0;0.20578577435976766;0.11352484675284692;0.012928733906422012;150.0;0.20489078912730005;0.10808579476694886;0.011720203656122169;151.0;0.20193214767208897;0.09543576414564008;0.009136024757506122;153.0;0.19608328817413348;0.09050341101475987;0.00821157705955196;153.0;0.19827318777681707;0.0782468504529671;0.006138334738799157;153.0;0.18854410939092087;0.07779543692190288;0.006067230111295687;153.0;0.18796950591575642;0.07875164331228111;0.00621594499479071;157.0;0.18760620085038668;0.08159652328952484;0.006670115173312927;156.0;0.18919684062408504;0.08715961971884875;0.0076122785325592295;159.0;0.19456755113757576;0.09478759449999752;0.009010272130528612;155.0;0.203915563378947;0.10608280604409392;0.011288172361660418;150.0;0.21254051997749007;0.07921286076274774;0.006291616365591151;156.0;0.18905107621642944
0.07180415966567083;0.005170439703160491;152.0;0.1704761868276767;12.0;0.07854005217141084;0.006186478079535573;159.0;0.17210178793455114;0.08020264133026711;0.006449044976801368;157.0;0.16970277644178025;0.07728341993272866;0.005988569287005098;161.0;0.1682078622188817;0.0738484751766232;0.005468160430018432;161.0;0.1677953826564362;0.06902810041250124;0.0047784058415237035;160.0;0.1664331252292051;0.06241872820525414;0.003907065714107268;158.0;0.16245140597997218;0.06354177630568746;0.004048483635394431;157.0;0.1637741709423702;0.05983105390467402;0.0035855351596498094;152.0;0.1589504776505913;0.06170192070748704;0.0038139705062641507;146.0;0.1593767479452779;0.06437509559055193;0.004149107968468158;149.0;0.1611006016799664;0.07293477991084972;0.005326067100009948;154.0;0.16617560430240627;0.07892898042631408;0.006241521712196022;153.0;0.17131983644070703;0.07634123773002444;0.005839142353001536;159.0;0.16897536377900219;0.06936205062001681;0.004821562358315978;152.0;0.1657337581493118;0.010877919524862294;0.00011865628816625844;159.0;0.07871184840164028;0.08312695252967023;0.00693213562269841;154.0;0.19040501776477506;0.0877577605582428;0.007725662392991552;156.0;0.1929466577270386;0.09495597340934758;0.009043281848029355;158.0;0.19523564487903872;0.10107909723459559;0.010246323190742462;159.0;0.19549466065632973;0.10463642557552037;0.010979772347624128;155.0;0.1959141995839158;0.09746884951831289;0.009527746536761606;156.0;0.1922350939806524;0.08653740422805427;0.007512174931091444;161.0;0.1873649053054829;0.0804553967579238;0.006492859667961205;163.0;0.18942494676924143;0.07148916495605301;0.005127365324485866;164.0;0.18133664844694616;0.07115281292657087;0.005079176207615339;164.0;0.17987609227617513;0.07169646356713263;0.005157152870783205;160.0;0.17850233566915577;0.07364629232729453;0.0054415191024751106;160.0;0.17963267852497702;0.08005180744258746;0.006429250115631192;160.0;0.18390134553349757;0.08685504988514883;0.007568150109115366;156.0;0.18939774003474272;0.09379857908991443;0.008826915878856948;159.0;0.19270050513843517;0.07189600717664876;0.0051856760913844314;165.0;0.18142108963630382
0.0648321769223258;0.004216965285630044;137.0;0.15738280031095445;12.0;0.07021555367513425;0.004946338320036337;143.0;0.157698034654983;0.07131558025107204;0.005102379228216516;143.0;0.1575475247932658;0.07070953881654099;0.005015882191285447;159.0;0.15905505920577337;0.06923007572723762;0.004808140471601937;157.0;0.15927951199942794;0.06502510399524992;0.004241731164780027;159.0;0.1578796393257621;0.05939447536303917;0.003539032964726352;152.0;0.1553439399288019;0.0579509922628446;0.0033692892774240964;142.0;0.1521376399698135;0.05522311623340961;0.003059508542997869;142.0;0.15164217085088635;0.05777891007860634;0.0033491100546343498;144.0;0.15183364203654212;0.05964319846852033;0.0035688062912768853;139.0;0.15178567799959122;0.06530536592941187;0.004278018848330352;140.0;0.15395494690312578;0.06799099781007277;0.0046365291116988025;147.0;0.15606232096384617;0.06438369062681874;0.004157156729704851;141.0;0.15389143172436873;0.06071273847727297;0.0036979710010142455;144.0;0.153681882285591;0.01094007444096485;0.00012005021258740045;167.0;0.07948337392027878;0.0767155312555315;0.005903929882334838;154.0;0.1860346713119649;0.08234703668420378;0.006801207728819584;154.0;0.18768445741419226;0.09025289097172796;0.008170317034312424;152.0;0.1899766768679677;0.09594318395052923;0.009231721525954799;151.0;0.18981995744267316;0.09641807994803116;0.009323983831218107;152.0;0.18872881602652086;0.08818005946870745;0.007799574880473511;154.0;0.1847851612001124;0.07885614851496216;0.006237269524210487;159.0;0.18005715217271837;0.07111720431200046;0.005073730540806241;153.0;0.18194001742223884;0.06830307978423536;0.0046802660609965106;166.0;0.1741124113281497;0.06976810290316805;0.004883315504370071;164.0;0.17408043111729732;0.07225048684672396;0.0052369404123824865;159.0;0.17355831189768425;0.0778384755937564;0.006078414371317724;157.0;0.17587628773441646;0.08924286574968575;0.007990212956016846;153.0;0.18179546218752654;0.09510339129641479;0.009074021018732312;152.0;0.1884812871790305;0.10110216716231006;0.010254089994223333;159.0;0.19177372655411745;0.0674346449195836;0.004562291567154781;165.0;0.1735369414396213
0.04814652010484915;0.0023246693810676402;153.0;0.1449855359624143;12.0;0.05031547858470203;0.00253964535515462;155.0;0.14592996532580846;0.05328971150411851;0.0028485136979726315;154.0;0.14811603945202376;0.05677190288445333;0.003233021494660611;163.0;0.1513537024345321;0.05755436686095633;0.0033230853245492216;153.0;0.1524691521011554;0.0550166987840026;0.003036497089538497;155.0;0.15220916873730206;0.04969629006751842;0.002477001664676427;155.0;0.14946934758948266;0.04847450291950871;0.0023558158851176435;151.0;0.14341753612177946;0.04279439241303677;0.0018342819893705884;159.0;0.14632356366253071;0.044390014649202246;0.001972227543033321;157.0;0.14562160632008553;0.045756439579746996;0.002094912946579792;157.0;0.14515952324250073;0.04950198149643617;0.002454023965864409;153.0;0.1465690133242418;0.054433566641438676;0.002967242442976726;156.0;0.1494016298162315;0.056294121429688225;0.0031728058294047752;149.0;0.14863504881898026;0.055077584654888594;0.003038343066039031;156.0;0.14839089818498985;0.011926272463573171;0.00014258954015974672;174.0;0.0828461755685093;0.07560910674882997;0.0057350356888347725;155.0;0.17825881178324596;0.07883221890554466;0.006234612258910118;163.0;0.1791379136543713;0.08244744484176576;0.006819634858447768;156.0;0.18085354234058712;0.0861134336756033;0.007439706293026986;149.0;0.1814888632839986;0.08734903587918746;0.007654509727671879;154.0;0.18083769350117818;0.08101147158365889;0.006583938973118164;157.0;0.17673650327159648;0.07210390546721675;0.005215964401070379;160.0;0.17077767881332354;0.067976714412876;0.004635801767778638;153.0;0.17032038511004374;0.06098928628610641;0.0037318745931821523;165.0;0.16108677211763844;0.06181219641348725;0.0038332636234585816;162.0;0.1613556885426617;0.06325128478548737;0.0040138098904587294;157.0;0.16106439904938233;0.06865941181818176;0.004729342580363982;153.0;0.16337435465682928;0.07920303113727147;0.006293479006807356;146.0;0.16879544195053034;0.08568039611640638;0.007362345856826052;148.0;0.17578806445314907;0.09359190943339002;0.008778570695361912;153.0;0.1844430864721936;0.0603364626477054;0.003652388302767923;162.0;0.1608684743085136
0.04071056479613911;0.001662762506449849;162.0;0.1339477388680345;12.0;0.04359786279132524;0.0019069738047646292;161.0;0.13591043682503906;0.04641481047019629;0.002161355398844388;159.0;0.13613209744378202;0.047185538428489764;0.002233701951838117;156.0;0.13608592026362668;0.04630019451305065;0.002150505855468631;149.0;0.13548885929889015;0.04465914065662571;0.002000640304212453;149.0;0.1356315428207542;0.04041151590450886;0.0016379176155431828;150.0;0.13268260087423783;0.0397915797197683;0.0015884140553482759;164.0;0.1310315530038616;0.03570982910624871;0.001279296831421428;161.0;0.1317477610243319;0.03591691152731179;0.0012940976610311408;159.0;0.13089490979931628;0.03585314814597001;0.0012896473800937675;167.0;0.12935228971223572;0.037862843574900565;0.0014381769405957614;169.0;0.13016901865705371;0.04211859498747843;0.00177974744584013;164.0;0.13231034568166022;0.044736971166839314;0.0020078712567551393;161.0;0.13220861210298188;0.0435370585794956;0.0019016471285855422;167.0;0.13243584897572613;0.011274284572110192;0.00012748994709319445;160.0;0.08111715645478636;0.07195354519759789;0.005193993796812545;159.0;0.16607212919224154;0.07487220023464326;0.005624246345756158;162.0;0.16880504103846758;0.07638552810897666;0.005853960792920888;156.0;0.17058595837749738;0.07826811438372866;0.006145794725790513;150.0;0.17105471676171155;0.07931766116991963;0.006310871088102651;158.0;0.1706591583929931;0.07240382273854028;0.005257881821522833;157.0;0.16547706585682168;0.0628678926618837;0.003964973431060763;161.0;0.1596953176370318;0.06654687401193957;0.00444276742171964;163.0;0.16335144655666134;0.05362696085822788;0.0028849790784785828;162.0;0.15492844019534402;0.05337464118919955;0.002857187712782328;158.0;0.15494142177045625;0.054484898128210994;0.0029771286824410606;155.0;0.15384717169867432;0.05955597300036132;0.0035564703700951945;147.0;0.15642057886045824;0.07134383636809297;0.005104570821102604;144.0;0.16192034133181255;0.07687792649411482;0.005927000950758753;145.0;0.16711695651030598;0.086493526496069;0.007504756992365305;151.0;0.1788675931929073;0.05275757735562935;0.002791772931572306;158.0;0.1542436602728766
0.038697370933484763;0.0014961266304051226;157.0;0.11814829691812788;12.0;0.040691902621418724;0.0016553068586914032;163.0;0.12011466007853316;0.04218178497294414;0.0017785132287367496;157.0;0.1205889887956435;0.044029755433734066;0.001938065771887422;149.0;0.11967581400983475;0.04707195124149413;0.0022147863505653843;147.0;0.12044372395924459;0.045696821751887315;0.0020858694773430277;153.0;0.11941335712453105;0.0423759034062106;0.001792592695578929;152.0;0.11601924574909386;0.036275421441765515;0.0013153962197639218;160.0;0.1142772003139799;0.035910327892882045;0.0012874976454678752;155.0;0.11232886831783256;0.037017182842586246;0.001366726245403859;155.0;0.11411705578364707;0.035827973897504056;0.0012786356747317123;169.0;0.112046198023772;0.036903473541690296;0.0013579526967511305;166.0;0.11240554442016182;0.03930993844863165;0.0015425476847654642;163.0;0.1146128963690068;0.039121939587082565;0.0015256302947628437;159.0;0.1146007272463795;0.03733108767785418;0.0013911779612006175;165.0;0.11423274396915922;0.010905947288016067;0.00011931904545249955;150.0;0.07931682954341172;0.1002521273919845;0.010074670155068258;162.0;0.1920257888271101;0.11556752957120711;0.013387613720264258;156.0;0.19541397311870623;0.1301950949334736;0.016987055031219916;154.0;0.20027088383328717;0.13502117171022823;0.01827018827159304;153.0;0.20211013385967913;0.13228865435109452;0.01754018438247759;159.0;0.20071581928759846;0.12295786753263377;0.015154746142662514;155.0;0.1964339914875839;0.11040326423622603;0.012218704405170795;157.0;0.18976301945780322;0.09484744691034304;0.00901286144874669;158.0;0.19336560402813202;0.08680582930334049;0.007552550580651653;154.0;0.18001275885827767;0.08853026708977438;0.00785705538867246;153.0;0.18087592238077255;0.09170951039264648;0.008428944699578129;153.0;0.18114322090560425;0.09882398328921684;0.009785132256027862;146.0;0.18491803467693138;0.11465504345606907;0.01316233726437255;152.0;0.19149163321913404;0.12750750990068158;0.0162634586523854;154.0;0.19738118711537425;0.14799805576493527;0.021910613723354858;151.0;0.205519839152535;0.0886497693632461;0.007878784549104205;149.0;0.18069520300046338
0.14992180163564106;0.022545066075692236;155.0;0.1955931529113369;12.0;0.1661558792352909;0.02769160621937796;160.0;0.20067561549576923;0.17499868363009055;0.03070874991105788;152.0;0.20310118040493977;0.169085511962181;0.028656896866166983;150.0;0.19988940194988022;0.1625047521295339;0.02647289262292503;146.0;0.1981172034498014;0.15318892186287603;0.023529863700485817;153.0;0.1948025354722206;0.14539515840267153;0.02119567808303872;155.0;0.1914126635306583;0.147757808011787;0.021897216531138058;153.0;0.19351787789960073;0.13478695363504614;0.018219894421772336;153.0;0.1886067137064899;0.13761590566852702;0.01899355620825886;155.0;0.18999551439170978;0.1445100083167087;0.020943740551858853;167.0;0.190979138760113;0.15856510501932708;0.025216359426190875;156.0;0.19464148772766723;0.17523571987365302;0.030801365403663617;159.0;0.2007632403950605;0.19326876566525839;0.037465760053853915;158.0;0.2080845569011733;0.16622328792806113;0.02770797957249239;155.0;0.20457372730010134;0.011261346086674706;0.00012721370667802403;155.0;0.07750861714422676;0.13963609723046277;0.019559460249928915;158.0;0.21981653972702495;0.15392553717506882;0.023767757791830595;150.0;0.22602552387569497;0.16719164175531587;0.02804276080465205;154.0;0.23251617968115826;0.17232910384231362;0.02979148509078043;155.0;0.23503742007276646;0.170336633262108;0.029107046855898107;161.0;0.23418459334621017;0.16046255883283914;0.025828578962716044;163.0;0.2302252178455621;0.14478560126265955;0.021029491792495282;164.0;0.22281222395391614;0.13070530235089714;0.017135356156520166;159.0;0.21884225110425834;0.11160115791394006;0.012490722417698993;157.0;0.20525408534620926;0.11444782422422443;0.013136183471340023;153.0;0.20578449135056426;0.11915453849415848;0.0142365211666068;151.0;0.20630295550019487;0.12706223246308576;0.016185195132529015;152.0;0.2086098299778214;0.14460969579613256;0.020967321424947394;155.0;0.21423339951518677;0.15861098278260688;0.02522822030556628;155.0;0.2217841023893623;0.17723233822823758;0.031505859843484835;153.0;0.23049716077481033;0.1133556906526307;0.01288780987632117;159.0;0.20616616425217302
0.22674997614191325;0.051573243819554034;159.0;0.25061765360345784;12.0;0.25424744692526924;0.06483077208703002;158.0;0.2587987103224157;0.2674907905832145;0.07176170366591594;155.0;0.2619560368011734;0.25191277305636256;0.06365356317069437;154.0;0.2574772198858077;0.234173888528992;0.05501199877730182;154.0;0.2522106412519939;0.2185385278767561;0.04791242238432535;157.0;0.24731762902637308;0.2051045948084961;0.04220361403149479;156.0;0.24286783314634297;0.21404093125099471;0.045946930712040396;157.0;0.24586257015282184;0.1897441181735099;0.03611836866628762;160.0;0.23832556815929282;0.1957299513330172;0.03843370801729106;162.0;0.23858289412151765;0.2085181642532247;0.04361867627203419;165.0;0.24011859193452995;0.22613340066036236;0.051297105256205816;158.0;0.24467780994111019;0.2439105429736284;0.05967359289713025;157.0;0.25158954916008286;0.2644061528976001;0.07012751069749372;155.0;0.259685499656319;0.2315711013027298;0.05378997508814624;156.0;0.25420431061296345;0.012072970754693197;0.00014620201957895817;162.0;0.07879744011776192;0.15174465971844478;0.023078901432144295;151.0;0.23080787864129063;0.16183989198051926;0.02624426771356802;153.0;0.23979417596906769;0.1716531622196748;0.029511821355164055;154.0;0.24685591677643792;0.17703295258103982;0.03139835718038;156.0;0.2502903576258236;0.176782304257301;0.03130194562572307;156.0;0.24904694407034156;0.16671333673135288;0.02784906243857567;158.0;0.24228061693782052;0.15114924374432687;0.022889821956398194;157.0;0.23418539993129037;0.14638935078252766;0.021477299284861414;151.0;0.22793657710681797;0.12063327916674782;0.014590919768474535;155.0;0.21853768654336725;0.12211274689951448;0.01495594368953334;153.0;0.21785342129263485;0.12589100783537507;0.015893144902672556;154.0;0.21844784371589143;0.1320845178673526;0.0174986893658848;157.0;0.22030415903850947;0.14384924420945397;0.020749942389175526;155.0;0.22461826567491625;0.15203720644314778;0.02316584093055986;153.0;0.23029431876428325;0.1703862161363602;0.029085570955804475;149.0;0.24081730114808414;0.12098509671892643;0.014676586038551584;157.0;0.21868471471785442
0.18820440669842894;0.035526194243542746;156.0;0.22056459336791545;12.0;0.21214804330501003;0.04513419950134624;153.0;0.22909328765051354;0.22372795034091333;0.050177359804790496;159.0;0.23176762482866736;0.2102364755559459;0.044300517902490295;154.0;0.23042520107499403;0.19356571126260735;0.0375626902876488;158.0;0.2273260285311287;0.18025906473024236;0.032585461291273446;156.0;0.22301915624956697;0.16596200062888847;0.027616206281299693;160.0;0.21690504086228451;0.17363485850108681;0.03023359856250606;156.0;0.21476072882680772;0.14976009884820063;0.022495401777872542;151.0;0.20816334414040108;0.15584044733057664;0.024358825042193673;150.0;0.2092390799411308;0.16748984986138524;0.028139394874880236;150.0;0.21097556084948763;0.18024268706276514;0.03258959636226244;147.0;0.21530649189241843;0.1908913871303295;0.03655433082739307;146.0;0.22159999000401429;0.20093459860542165;0.04050334588250466;147.0;0.22465405879167769;0.18027366779179874;0.03259549488637909;153.0;0.2183330443769181;0.01247139797764061;0.00015602380774757502;163.0;0.08067793354345892;0.13186250005504227;0.017434775196312383;148.0;0.22421143200594304;0.14553663267686331;0.021242384579273486;159.0;0.23074599497005466;0.158784776891282;0.025288830434112473;155.0;0.23548718071469762;0.16425287545268763;0.027066110644389938;153.0;0.23832583090814674;0.1625933695516455;0.026521062850174394;153.0;0.2365702163501829;0.1522164244042944;0.02324410190195451;160.0;0.23134542090584193;0.13789821996176863;0.01907452346489452;152.0;0.2240939530059891;0.12976492372071746;0.016888346658000833;148.0;0.2213604858489763;0.1140808461684295;0.013050497997105696;147.0;0.21339366967399953;0.11393297247827854;0.013020641831532705;152.0;0.21209502140017122;0.11555048892620548;0.013389256182325037;155.0;0.21170667896632134;0.11986291664123024;0.01440839255362797;160.0;0.2130126923257756;0.12748796369724788;0.01630026548254576;161.0;0.21639715215357946;0.13423734569852883;0.018073214040939343;157.0;0.22116446519487196;0.15225664329706515;0.02325547380441073;149.0;0.23025954567028856;0.11461535582477854;0.013175548280344127;147.0;0.21380246214995025
0.09782604778169227;0.009588243446927054;157.0;0.19655186954827633;12.0;0.10968345190800238;0.012052814524037178;153.0;0.20214301423347153;0.11854978851782258;0.014087742079184937;163.0;0.20537445171774316;0.11810445649916346;0.01398131271312892;160.0;0.20491129593679316;0.11243031331231751;0.01267078854707501;159.0;0.20292404916013723;0.1055223878253009;0.01115746765790487;157.0;0.19889652298694058;0.09549971478696287;0.009140292827141155;164.0;0.192708054995491;0.09328699559339476;0.008712052073190502;154.0;0.1914874786986707;0.07716048705183766;0.0059616972394081775;154.0;0.1811553747077399;0.08006115376786235;0.00642144855162009;156.0;0.18373302186637225;0.08398765083828877;0.007061057535088136;156.0;0.1857592424883068;0.0915111348385706;0.00838518770718148;155.0;0.19002794146827592;0.09991760097952655;0.009995964758230039;152.0;0.1957116364956172;0.10195242520069685;0.010401852186622337;155.0;0.19727572230688462;0.09563466126516448;0.009152908759522682;150.0;0.19499934071254596;0.011520200737005784;0.000133148750925945;157.0;0.07693364574288959;0.09397952844719157;0.008859008642406546;148.0;0.2001719076058405;0.1035986328136715;0.01076179437304633;153.0;0.2025041937333962;0.11138593992001104;0.012439139058540728;162.0;0.20349454719758658;0.11410020625255575;0.013045094142933908;157.0;0.204237213230163;0.11330884358985238;0.012867479663563901;161.0;0.20493905976655574;0.10796829692872448;0.01168047803550932;168.0;0.20462422812886266;0.09906939521108304;0.009839016687298368;163.0;0.2012884244456237;0.09407398440878775;0.008873210417048643;151.0;0.1986873758704061;0.08567065055531753;0.007361318816382446;160.0;0.19494154619418338;0.08533103126320554;0.007304103899467067;163.0;0.1941669388155187;0.08590798261375665;0.007404030301278786;158.0;0.19224555252552486;0.0889498595602155;0.007938040852241078;160.0;0.19275280587782775;0.09820709176575684;0.00967616861936214;159.0;0.19672429086111362;0.10630132070316536;0.011337096673535116;153.0;0.20229776792700668;0.1165723255135953;0.013632055212301233;158.0;0.20721481448070847;0.08566385332807544;0.00736053216827163;161.0;0.19462533165731014
0.0768980371209916;0.005929146401027424;162.0;0.1779512835474022;12.0;0.08358156349279183;0.007004874356986748;160.0;0.17998494546139723;0.0879964789381571;0.007762424997703752;158.0;0.18255970951671804;0.08669025396824176;0.007531735263697589;159.0;0.18056882977833297;0.08340761775606431;0.006975310898972957;155.0;0.17817972725486525;0.07945610460981431;0.006330553209577285;154.0;0.17529638037029469;0.07315748067005755;0.005365376096611796;162.0;0.17135718795547641;0.0708640060747507;0.0050360000601334;161.0;0.17263097695624072;0.06001347772655981;0.003610987065613229;169.0;0.16240757652864055;0.06359489803098281;0.004054244274782999;173.0;0.16510217404275207;0.06611028991655729;0.004382181028198184;176.0;0.16701476716935268;0.07280250391066899;0.005314979753235315;166.0;0.17143073872727585;0.07783189943316794;0.006073596859765613;166.0;0.17481107962100384;0.07762465046339653;0.006037347694960691;170.0;0.17526217508573821;0.07428449616446682;0.005530684237303508;164.0;0.17583732640759098;0.010423720542449775;0.00010900275300230219;155.0;0.07364968492421545;0.08591343216789779;0.007405589318772063;149.0;0.18933803901250307;0.09301670066400025;0.008680633736844709;146.0;0.19338469824296592;0.09854485721249871;0.009742600040560245;154.0;0.19679966442179384;0.10128571311646432;0.010291246729684443;151.0;0.19855908909567901;0.1019841599090384;0.010431411017418452;152.0;0.19957036428632985;0.09550020102619798;0.00914756245972443;151.0;0.1961841084436189;0.08732268871290444;0.007648251033802843;151.0;0.1925469161665425;0.08062024075362705;0.006520340068301489;145.0;0.18678117685733422;0.07385002226856441;0.005471235392014308;156.0;0.18608238099590005;0.07383618428359179;0.005469010361852918;156.0;0.185486658594347;0.07506430945864809;0.005652367430422255;151.0;0.18391908497620318;0.07867721245600874;0.006209793653435521;144.0;0.1850931654835057;0.08736766577723921;0.007657106980136858;145.0;0.1905130505630071;0.09373243425545183;0.008812983217483767;145.0;0.19500806414351288;0.10123532743634957;0.010278716689423812;157.0;0.1956478905507832;0.07354561335998093;0.005425498012994945;156.0;0.18529563679268962
0.06483134545209947;0.004215125115336708;153.0;0.15696735122317546;12.0;0.07045094266847927;0.004974762179216765;147.0;0.15904506815103778;0.0713164382507743;0.005094958488445331;139.0;0.1604981754369436;0.06793506168113964;0.004627167133298078;144.0;0.1589831521801371;0.0654972331284434;0.004300616873366365;143.0;0.1589365195084153;0.06287263991668837;0.003963694207532931;150.0;0.1576877378157992;0.05844893514179124;0.0034262359153272547;153.0;0.15459600996032286;0.05877713484788895;0.0034656787352705144;158.0;0.1539823171628012;0.05608835589370955;0.0031561721864533207;159.0;0.15239962198610135;0.057656986290335395;0.003335178211522857;159.0;0.15245209678451008;0.061850869152042215;0.0038380193886576033;159.0;0.15502172135344264;0.06865983587912;0.004729503527949879;150.0;0.1595464308780808;0.07284919904313836;0.0053241699257862;157.0;0.16354623266617052;0.07267715103251399;0.005298249778777476;162.0;0.1642063008180027;0.06473130859835334;0.004203575249898524;157.0;0.16299462911076995;0.010072821085674599;0.00010178754879648862;158.0;0.07661819765472246;0.11372345894671157;0.01296873651232512;160.0;0.2118245756303322;0.12458153708169843;0.015562294352749147;160.0;0.21720640453270618;0.13091964957649976;0.01719280182651552;158.0;0.21963132482640618;0.13247530837314703;0.017605974143204924;163.0;0.2189040773959254;0.13301037680660166;0.017749088492584535;157.0;0.21767194065303247;0.12322934285816303;0.01523490822475247;153.0;0.21137323788632725;0.10958869745432714;0.012048384605469057;152.0;0.20441597562431849;0.10224445320604743;0.010484028508119015;156.0;0.2049267973470351;0.08786362040652962;0.0077452536512847255;153.0;0.1933492426244302;0.08869550594320108;0.007892554281373339;152.0;0.19268955499706156;0.09075680748207132;0.008263354265126886;155.0;0.19217476188580512;0.09539806215729227;0.009129543818908608;150.0;0.1936833747652563;0.1037027610109764;0.010786709543637793;155.0;0.19797582126507268;0.10727819095404975;0.01154039266903886;154.0;0.2007218283115673;0.11279216956379869;0.012757042471081026;155.0;0.20140403359309766;0.08794417363521015;0.0077594393590609476;155.0;0.19299236421573013
0.06022857620528341;0.003636712662680147;155.0;0.16278520107052463;12.0;0.06684101491226414;0.004480193247589931;153.0;0.1663552424290914;0.06927137672866271;0.004810963503920656;156.0;0.168254216447207;0.06785070474172329;0.004615085736368468;155.0;0.16674565790133017;0.06581981324648561;0.004344439239303544;155.0;0.16549268725144833;0.06294650512251862;0.003974025035265944;161.0;0.16392302812048692;0.0577035819716877;0.0033398970351446577;156.0;0.15988295797977906;0.05442503189967113;0.002969852855676544;157.0;0.15926309668738822;0.05319199381378466;0.002838614247292549;151.0;0.157324273408912;0.05347530577678352;0.00286852576451684;148.0;0.1569112857548357;0.05614414543197858;0.0031622273110618253;149.0;0.1570875724709337;0.05983240302334015;0.003591425218522046;147.0;0.15870783069546227;0.06519713042568534;0.004264412749077133;149.0;0.162958477920839;0.06718058644501006;0.004526809967031074;155.0;0.165426692212331;0.06000309779288981;0.0036102032311738294;151.0;0.16448436888431225;0.012022292109658808;0.00014500839600556557;161.0;0.08164239223382415;0.12210596226145594;0.01495050146539095;154.0;0.2209760359788493;0.13733059285946358;0.01890885963260447;160.0;0.227748186968575;0.14868928797084222;0.02217377247667165;160.0;0.2327605531349058;0.15130855814555122;0.022965323101203295;168.0;0.23215074300077948;0.14936615368223863;0.022380605156939872;166.0;0.22933977601159358;0.13913956596281976;0.019420101379766956;160.0;0.22255813318344161;0.12525744339767172;0.015738602723027184;157.0;0.21257567598493557;0.11394212981513047;0.013017325292835563;156.0;0.21390675031117376;0.09900542677336546;0.009832026412824333;154.0;0.19641323351887444;0.10039667763097294;0.010109804303963353;151.0;0.1956526687873146;0.10319186751916494;0.010681233098506606;154.0;0.19549463547536824;0.1096324942717917;0.012056459702011066;151.0;0.19650618580036697;0.12258785695617902;0.015075703837016508;151.0;0.20120055512647475;0.12808227581091414;0.016456738770526797;154.0;0.20673555759899892;0.13851665600131013;0.0192462702318805;154.0;0.2147823794525107;0.09969741872001635;0.009970036591900525;152.0;0.19634807093862505
0.04988372035491354;0.0024964775131373503;148.0;0.14980029077453366;12.0;0.05537859536952234;0.0030768106678775563;148.0;0.1538512688113856;0.05818439761158554;0.003396480188956912;158.0;0.1555949731881446;0.057553848564085214;0.0033232591385568486;156.0;0.15480267278419568;0.05603076593713448;0.0031496423857705204;157.0;0.15252618414591362;0.0540839607946559;0.0029345947265216263;155.0;0.14995735177592495;0.047977642096118704;0.002309258243498929;150.0;0.14613586975544288;0.043341960990705315;0.001884642330786111;148.0;0.14543616561025097;0.041560596181937304;0.0017329291076765517;146.0;0.14335553882553084;0.04204901020780547;0.00177390598126512;145.0;0.14407004808464416;0.04364700685187258;0.0019112026351950624;149.0;0.14291011214099675;0.04571711801999898;0.0020968693720073667;152.0;0.1423836650236916;0.050535904150046614;0.0025622466686931003;143.0;0.1462457586133984;0.051137079440893754;0.002623384544385249;151.0;0.14825404967902256;0.045849800726036456;0.0021090759430404575;146.0;0.1459139295968275;0.012346539325429312;0.00015293221046572595;159.0;0.08187470588745537;0.10415893805137892;0.01088043137207205;154.0;0.2090334033790742;0.11729814850834452;0.013796220713403997;151.0;0.21516679923681403;0.12912393139842343;0.01672022197858554;155.0;0.22070820988565715;0.13299249126546991;0.017736535799381756;153.0;0.220841324534099;0.13151330084449117;0.017347408777724827;159.0;0.21729589137994357;0.12478907482087252;0.015621806670919952;159.0;0.21070071003850738;0.11390331067058244;0.013014514425300779;159.0;0.20271368226937245;0.10351791938194393;0.010749495176296055;152.0;0.20489960688752873;0.09319326790004914;0.008713387824389289;154.0;0.19116790075930734;0.09446664379348339;0.008953022429837436;151.0;0.19109475640344603;0.09750082741059383;0.00953751167513171;152.0;0.19067515127397366;0.10459027426122655;0.010974926616470567;148.0;0.1919494752026144;0.11843802851284617;0.014073575433404291;144.0;0.19834584603189243;0.12469976122761448;0.015600720765479354;151.0;0.20493489603484033;0.14003418418931465;0.019673463262297478;154.0;0.21774402962678402;0.09390868519156802;0.008847656288384449;149.0;0.19119134531390652
0.034036105057844004;0.001161814067539654;134.0;0.11978979052809478;12.0;0.036144410483828805;0.0013103423001098148;144.0;0.12329817799498934;0.038929195319437025;0.0015199373823055959;153.0;0.12487673364493015;0.040639551352896826;0.0016568965605162256;141.0;0.1259947847831647;0.04071776005470047;0.0016633393184301635;142.0;0.12546343707823204;0.03881556821986638;0.001511568555856808;145.0;0.12355071603041148;0.03450672645984146;0.0011944609132129975;140.0;0.11986503988041776;0.0308374066480749;0.0009536333926482385;146.0;0.11713738638318776;0.03137765007880952;0.0009866909681459156;135.0;0.11724449487602069;0.032446337584340325;0.0010553854050565955;133.0;0.11797112444842955;0.0336737301586064;0.001136865765980558;134.0;0.11686380099304453;0.035015243389360094;0.0012292710349606929;140.0;0.11663452813318345;0.038668707151233106;0.0014991753489224313;132.0;0.1211970229011193;0.0398081729954629;0.0015892487414774115;147.0;0.12330405051898313;0.03432224554022508;0.001181482840158377;136.0;0.11915082546410792;0.01050400743574824;0.00011069519649013513;158.0;0.07794506064450436;0.08434584433295665;0.0071369264027294705;169.0;0.1926674344011602;0.09158762857134657;0.00841306288359599;159.0;0.1960794818036323;0.10052762945544909;0.01013206556879516;161.0;0.19865958433123027;0.10528670190368244;0.01111565682889951;159.0;0.19853763265678556;0.1089558168444061;0.011898090579676661;159.0;0.19625392453411036;0.10595367299386986;0.011247683117048607;161.0;0.1920293714458415;0.0935124015378907;0.008765386642901284;162.0;0.18397252640683648;0.08333530026003219;0.00696738522400594;158.0;0.18753347008102844;0.07538246685989884;0.0056999915511792955;163.0;0.17505634212620705;0.07728198457437363;0.005990758178748956;162.0;0.17540020367388204;0.0796363978845071;0.006361826706801266;160.0;0.17512940671851682;0.08454902470938347;0.007170847960010799;160.0;0.17579016202714015;0.09269758773450615;0.008619836878552212;160.0;0.1802973116223801;0.09893503488983237;0.009819920219782653;165.0;0.1865294893511989;0.11292768971182067;0.01279453541933415;168.0;0.19613234385673833;0.07522544655391372;0.005675836626314137;161.0;0.17531820474576235
0.06363229984946259;0.004061807981323124;147.0;0.14594959286432457;12.0;0.06764765146972812;0.0045906071942620015;154.0;0.14790469920808016;0.07073381232539261;0.005019151581602807;163.0;0.15048500640057935;0.07822589695301496;0.006139187985170346;148.0;0.15473385849043153;0.08532518547652818;0.007304180130691776;146.0;0.15953041718384528;0.08287116848272312;0.006889846419112407;156.0;0.1581681851389014;0.07278575403423303;0.005314688892394666;151.0;0.15133968355251778;0.06060603816969398;0.003682884971647164;158.0;0.14394166426072333;0.05657477640397757;0.0032105722125128295;143.0;0.1401158272644053;0.055759791636328326;0.003119290151383648;140.0;0.13955507129362307;0.057509671077198225;0.003318176484836032;139.0;0.1400804223793012;0.06098868000102731;0.003731687333130101;144.0;0.14280690497772958;0.06788980624652775;0.004624110440257051;142.0;0.14828501926659232;0.07344296095380884;0.005409949002658557;154.0;0.15102504326582528;0.06487496181780657;0.004220372728754711;152.0;0.14589547998032112;0.010001022000395002;0.00010030770046806007;160.0;0.07382424145060368;0.13808750351587637;0.01912842886943612;173.0;0.21947908077430772;0.15135499641352718;0.022981609479181528;158.0;0.22405151405069396;0.16210515390054073;0.026360181074303154;152.0;0.22636476979346087;0.1646366630740814;0.02719131815754157;151.0;0.22549577968782217;0.1628591336821438;0.026607330317563398;153.0;0.22248674676969138;0.15051410157240344;0.02272727260984769;155.0;0.21551311845062746;0.130671730840819;0.017129903130953833;155.0;0.20359001082607744;0.12654750163470144;0.016065225782833318;158.0;0.2092547244552297;0.10351596033152898;0.010750143189937474;163.0;0.19074365492544426;0.10403764580809541;0.010857499345125253;164.0;0.19046919986890667;0.10565765479381381;0.01119736994198095;157.0;0.18978852160112156;0.10939886917209189;0.01200418751095663;158.0;0.18979708208829033;0.11863647087719105;0.014116065490219694;159.0;0.19436804775664218;0.12816654697456523;0.01647672593325489;165.0;0.20112739051627457;0.14445709966382697;0.020924343817346185;173.0;0.20584598262929826;0.1040474926205577;0.010861113087897134;162.0;0.19096675341251967
0.1553802338669473;0.024216574341740817;156.0;0.21834895880357164;12.0;0.16165134635949696;0.026209196920784755;152.0;0.22312738569443763;0.16305649778292122;0.02666442852475265;155.0;0.22384898484508753;0.1606634807101991;0.025883616108475824;154.0;0.2227657568869947;0.1582689998061769;0.025120729698845184;151.0;0.225417457059435;0.1532654020907869;0.02355559830927375;155.0;0.22470524057561767;0.1463334535675999;0.02147109805313702;153.0;0.22024277541796972;0.15380049665642745;0.02372841751562614;153.0;0.2179362263067041;0.14223625234851392;0.020285154300957346;146.0;0.21388785243847475;0.1482443766821309;0.022034079591269982;142.0;0.21409101901370267;0.1591815073037565;0.025407411899899826;141.0;0.216612433466866;0.17948918513492243;0.03230411461062003;143.0;0.2227442017479133;0.20019202807118527;0.04019936399113161;141.0;0.23048543783969916;0.20634016171547237;0.04270787549828373;150.0;0.23412261353282093;0.1748008401786031;0.030649703800159994;153.0;0.225268791575677;0.011398878721899732;0.00013035570665156948;144.0;0.07727025631983483;0.14719509920434665;0.02172968505515741;153.0;0.23598354248101963;0.15977030602105288;0.02559945847540581;143.0;0.23964324359272238;0.16998185723764478;0.028963182004895904;144.0;0.2410983506986232;0.17267792270176266;0.029898903900453896;140.0;0.24020656510053093;0.17023082436640594;0.02904929112454912;144.0;0.23801093604605206;0.15834961558124855;0.025139037545650344;147.0;0.23140820047077545;0.14089744429647993;0.01990169569592761;149.0;0.22206989069617852;0.13921555117955994;0.019442350269549588;151.0;0.2279987723571882;0.1168431248704563;0.013688733521756346;149.0;0.21080777882767235;0.11701483483426292;0.013728749601340509;152.0;0.2100678117338448;0.11929462650614028;0.014269583289314335;147.0;0.20879738654874147;0.12406137369290357;0.01543605242209629;147.0;0.20927091636188133;0.13702588253265807;0.018832247910350538;147.0;0.21570366115274436;0.1496911679970605;0.022480296075769537;147.0;0.22294706264058545;0.1679279012898247;0.02829180914347304;157.0;0.22778189020172063;0.1170885913221074;0.013749292715865634;148.0;0.2106346984377265
0.17258120878208777;0.029868305754689684;152.0;0.24106523418216436;12.0;0.1821634725488884;0.0332782146430165;157.0;0.2450315675929231;0.18776103639802735;0.03535674815216735;166.0;0.24724943118402373;0.1855293646447691;0.03452571054548583;173.0;0.24698406783795457;0.1804644724764713;0.03267384831008866;174.0;0.24736694913981838;0.17377359437289935;0.030295440730616564;172.0;0.24680849922146073;0.16666441664571172;0.02786780847980361;172.0;0.2438276126755731;0.16837436611081188;0.02842006538629251;149.0;0.24182283248507636;0.16465756471050202;0.02720061937302435;159.0;0.24011198098347192;0.1714838642144259;0.029502608586112596;154.0;0.24101660797006133;0.18017640052094053;0.032569464987544254;153.0;0.2421341675143363;0.19709939193751147;0.03897256937242064;158.0;0.24635773134034378;0.21386089563959282;0.045878775364534885;150.0;0.2516294123166161;0.21693744165093168;0.047203182322134704;157.0;0.2547147902977133;0.18748603425876445;0.03524261761426831;148.0;0.2482635150622506;0.011844035328076182;0.00014072674025036923;144.0;0.0795463834853816;0.09285940653359051;0.008650077256335386;147.0;0.2069914883318527;0.09808232937611662;0.009649603005062322;139.0;0.20789811518668208;0.10796875240111467;0.01169235011699706;142.0;0.20965760034391728;0.11542973807566251;0.013364270407249138;143.0;0.21135371460553254;0.118172404936852;0.014008790612819323;144.0;0.21225406875711442;0.1134934036258221;0.012916693615549597;147.0;0.20909793768650325;0.10447075285545294;0.010948203695432262;147.0;0.20401773827478173;0.09717482332946958;0.009473822705806184;145.0;0.20332191580397974;0.08871790044777272;0.007896651921373466;148.0;0.1941570605276567;0.08998794954552637;0.00812432296740529;146.0;0.19290366000787598;0.09270057457057924;0.008621415993971435;148.0;0.19154522351765707;0.09823753877868852;0.009681714081808596;152.0;0.19171230696451527;0.11265378150686259;0.012729542378276625;146.0;0.19716153327430422;0.12704160535416284;0.016189368947041993;138.0;0.20595948912886952;0.14343794577257826;0.020637511492046966;145.0;0.21307712100030693;0.08891067075631791;0.00793078663119585;149.0;0.1945174969553852
0.11318662697894134;0.01284361287409212;159.0;0.21882362127832758;12.0;0.12341799099324872;0.015265880566330312;169.0;0.21985287894001612;0.1330268748383697;0.01773780076073651;174.0;0.22363499188188732;0.1382498669190421;0.019163364810328733;176.0;0.22693360035224203;0.13843102820876702;0.019213071793573885;177.0;0.22737722650732428;0.1321885205358904;0.017519189306735603;175.0;0.22400285127801822;0.12252583377460947;0.01504982128524262;177.0;0.218530224410277;0.10769285286810093;0.011631112087020466;159.0;0.21911788035864646;0.1116988149224528;0.012497994567287294;170.0;0.21231378318717575;0.11362381164534244;0.01293465560460918;171.0;0.21288381855878205;0.11372070665588262;0.012957840904510114;167.0;0.21363676885288232;0.11451663992119007;0.013140545963533454;177.0;0.21504993177021492;0.11442283147672543;0.013129530643393816;169.0;0.21722945171925426;0.11399608024589543;0.013029381317975203;169.0;0.21884148232084355;0.11042130150896881;0.012228583567976879;162.0;0.2188334519096275;0.010800605759889394;0.00011701907691446775;155.0;0.0754675195493369;0.08738653244232997;0.007659161929308045;161.0;0.19795096257906653;0.09253099512017189;0.008588777397236895;151.0;0.19856361854258528;0.10011929853291597;0.010055075587981925;144.0;0.19852096817463694;0.10684127235806397;0.01145098974690547;142.0;0.19910662679343935;0.11031254585284878;0.012208320288584363;142.0;0.19772447523354134;0.1041314299004819;0.010877764492011726;140.0;0.19272539758566737;0.09348058041931082;0.008766579990924245;144.0;0.18803913326934846;0.09031295113188789;0.008181852101411211;155.0;0.19301927713396505;0.07559618892279764;0.005731442872120492;156.0;0.17931724356441225;0.07707187197214262;0.0059568629305404;156.0;0.17885019760492388;0.07913496734463434;0.006280396986493121;154.0;0.1791496585732023;0.08470149219522134;0.007195720477656991;156.0;0.18155114803263675;0.09562257696611605;0.009169629892652556;150.0;0.18646392142370943;0.10255333522623836;0.010550654036532773;147.0;0.19054181905406534;0.11705482628980775;0.013746448116296111;148.0;0.19500270703844005;0.07731279103452811;0.005994785293200188;157.0;0.17984094779629262
0.07303733111949799;0.005344918339136096;158.0;0.19107092147736793;12.0;0.07826312412489742;0.006134612016032215;164.0;0.19332464614260936;0.08374511086350964;0.007024905553875688;159.0;0.19499932703351355;0.08814782468441201;0.0077896284171788885;150.0;0.19553710979148062;0.08882124134703039;0.007912168397075849;146.0;0.19494169433307193;0.08441423864917438;0.007147679926305879;151.0;0.1916196303615742;0.07791545727057606;0.00608769326884344;151.0;0.1857755009134677;0.07450458738990152;0.005561864077243266;165.0;0.19018802592597372;0.06540430699560175;0.004289832660632211;154.0;0.17923015456678715;0.06524845128665718;0.004269908678484071;156.0;0.17845805106242119;0.06606583016925477;0.004377874911353019;157.0;0.17871760679857374;0.06937594741530885;0.004823828862972613;160.0;0.18009921937531578;0.07218095854683165;0.005221575403538359;158.0;0.18365618208970363;0.07492878612592994;0.005627911217572825;158.0;0.1859476145759895;0.07553248778076221;0.005719600370791329;156.0;0.18794689550661617;0.011436183115945847;0.00013120993988698603;158.0;0.07482673261112016;0.08730666995592301;0.0076442477278975;159.0;0.19633722588929145;0.09104065058245854;0.00831363810952838;156.0;0.1963831895215958;0.09682975810714735;0.009406226652219636;148.0;0.19748716785237636;0.10262292482987546;0.010565589430363877;143.0;0.19794667382727038;0.10547402131746904;0.011161148280800866;140.0;0.19516538567029026;0.099698172336851;0.009971959682736113;139.0;0.1902929803287837;0.08887476277118965;0.007924557618656652;147.0;0.1848405728828156;0.09204355545600475;0.008498435280360182;156.0;0.19538286399528862;0.0725758899333364;0.005283824775208814;154.0;0.17843177552003747;0.07402807375659604;0.0054969335101288175;157.0;0.17815458841344872;0.07731570504555851;0.005993954995075923;153.0;0.18011390289761955;0.08474170328391682;0.007198742230287737;148.0;0.18435031838063926;0.09723657489235124;0.00946887080526483;147.0;0.19152346957320973;0.1011590059497963;0.010246671762818646;156.0;0.19503912703047036;0.11287678858106007;0.012771481714039482;149.0;0.20168991763783853;0.07315638089841388;0.005368705756303177;154.0;0.17790424713240255
0.06567761606849076;0.00432714496370143;151.0;0.17956135986811705;12.0;0.06998332446884595;0.0049132138010910265;157.0;0.18063873651510634;0.07235631805777082;0.005252146497432228;154.0;0.17996388690452428;0.07403854742404715;0.005499588646765793;150.0;0.17834813282964365;0.07529429303376037;0.005687686446147963;147.0;0.17703307739419163;0.07189591424004589;0.0051856196893037745;153.0;0.17531849297163707;0.06610693168897945;0.0043842367063454575;152.0;0.17179069848931117;0.06424466158638455;0.00414086283080933;156.0;0.17764226298642669;0.06104055490050909;0.003737104392734668;148.0;0.16851787430987628;0.0623246582287307;0.0038968924591418997;146.0;0.1679628337394159;0.06541151417866581;0.00429247942584903;152.0;0.16707834543215722;0.06969270434472763;0.0048729537367594895;151.0;0.16878887586947725;0.07723520376908653;0.005984698188896917;146.0;0.17420495796234733;0.08057384633930606;0.00651329942091661;147.0;0.17692327013502554;0.06815371719667558;0.00465993530209218;145.0;0.17848958722732064;0.011757540642329707;0.00013852426673211773;161.0;0.0765589439254311;0.08513846550425444;0.007269888310470056;148.0;0.19747340516779396;0.08938595996912452;0.008012282255272774;146.0;0.19891871144399229;0.09446627584203882;0.008947951983263692;145.0;0.20156876258869208;0.09941146014264982;0.009909790360903926;148.0;0.20300676475635626;0.10060679650764617;0.010151853392205923;146.0;0.20031759421173997;0.09234420449226559;0.008552943643698773;152.0;0.19381960774324525;0.08108138560240913;0.006594263483121375;153.0;0.1866989745439374;0.08506289353871564;0.0072579956362623784;144.0;0.19542602843316811;0.06690535517754981;0.004489756298290541;150.0;0.17962774772025986;0.06796793155245306;0.004632435275808658;153.0;0.17944663625231122;0.07155804788142246;0.005135760576401844;156.0;0.1803158030075441;0.07886519315038307;0.0062392245283384076;154.0;0.18348508651845233;0.09134642686155481;0.008370726875101738;152.0;0.19043836445983975;0.10312854370452217;0.010670229112143092;157.0;0.19994384873608953;0.1263380108212517;0.016013346565028425;155.0;0.21408423762082035;0.06632202076672998;0.004411980852955944;149.0;0.1789329002624954
0.06016209966046156;0.0036312860630976188;149.0;0.17103994528605518;12.0;0.06366943781845784;0.004066680592174835;159.0;0.17027339135101155;0.0650244591001587;0.004239964391931623;156.0;0.16778872244415688;0.06602614039102658;0.004369731488885354;159.0;0.1670890569013335;0.06723596237309412;0.004529702098547191;155.0;0.16654457268123274;0.06542910085720334;0.004290049673156651;148.0;0.16559109007239467;0.05983533621459161;0.0035877099963463983;154.0;0.1633348278331891;0.0582225039100827;0.0034009137802414025;146.0;0.169309396870602;0.05699260499830525;0.003256174467906648;151.0;0.16087025348405326;0.05981308999936985;0.003587135973649305;147.0;0.16234537984108818;0.06428459368165676;0.004144281697713212;152.0;0.1633078338476173;0.06979241818316277;0.0048820339960018635;151.0;0.16572537895442294;0.07811514351200206;0.006115696088340892;153.0;0.1722826089847672;0.07998083232842072;0.006415164455896649;148.0;0.17204851070803637;0.06505690365277268;0.004246283340139606;149.0;0.1725696797607977;0.010725666355230106;0.0001153547622614268;158.0;0.07699388621141096;0.08187091833172144;0.0067244543496191;160.0;0.18943951584067253;0.08391623462963796;0.007065017918482719;160.0;0.19156231444561775;0.0849932695605595;0.007246930349801101;156.0;0.19086131640979181;0.0866521583009665;0.007530787829856503;161.0;0.18995407626991842;0.0870365626157702;0.0075943117984525;160.0;0.18649600609720451;0.0789743450507418;0.006255513975869038;158.0;0.17969318296519898;0.06969770461167309;0.004873235685823443;157.0;0.17334101876559962;0.07594359218036006;0.005786310247264838;155.0;0.18307254024290318;0.06160853896513608;0.0038080579656951073;154.0;0.17106861464731096;0.06324911399533593;0.004013589496047558;158.0;0.17159571571764615;0.06652556194911084;0.004440030233973211;158.0;0.1714676282071896;0.07324924112437287;0.005382581832604034;158.0;0.17451082497473902;0.08482513494340037;0.0072181806751778375;159.0;0.1804768057242207;0.0955375946705514;0.009157197377950194;156.0;0.18784672405976788;0.10986072702595186;0.012099338149816546;159.0;0.19629886811008132;0.06079457617628186;0.003708050174111038;152.0;0.17005688815173306
0.05427117994276702;0.002954103060556575;149.0;0.15890281965606082;12.0;0.059580899317943366;0.003560699091406297;163.0;0.16037999214439436;0.06632593166280888;0.004412132310381622;159.0;0.16127173853388552;0.06953187665401672;0.004849024040524947;163.0;0.1617232955198912;0.07060880155198057;0.004999585338521959;158.0;0.161102620234155;0.06852507829522422;0.004709824611044348;156.0;0.15983289660234437;0.0616368662119237;0.003810153887898747;154.0;0.15664505244527188;0.05351222317434208;0.0028710042337699356;154.0;0.1573401435693811;0.047800339258813634;0.0022923444261899397;155.0;0.14749571273579964;0.04913956276792708;0.0024225835100461024;156.0;0.14890776624940227;0.05186177259561755;0.002698404241774319;159.0;0.15028698909885918;0.056990306400559444;0.003258445113288507;163.0;0.15256474228210415;0.06503133207490032;0.004241710077638452;163.0;0.16031502432217243;0.06580913623282468;0.0043423779954950194;156.0;0.16096279022811832;0.05938822357639515;0.0035355070702637404;154.0;0.16019841117163408;0.010803892740234322;0.0001170198804706842;155.0;0.07661008649416652;0.07277789203442184;0.005314005602827493;170.0;0.18005001205498922;0.07000863225336539;0.00491753597325167;170.0;0.17990587453220316;0.06783223271608686;0.004616280302439003;162.0;0.1772203224162321;0.06879803296794838;0.004748652004806413;163.0;0.17582385531315403;0.07164575457042119;0.005149954838663532;158.0;0.17454730426988008;0.06856450516060157;0.0047163998786249215;157.0;0.17069724835160674;0.062353844340486554;0.003900682393347079;160.0;0.16619403722348408;0.07230089412716913;0.005243810525971066;160.0;0.17691784491548185;0.056725466584163574;0.0032275087546630487;152.0;0.16318961133247592;0.058098264277962434;0.0033854903272095976;157.0;0.16331166010745662;0.060955498119613795;0.00372669178948002;152.0;0.16329958909086129;0.06846633184145166;0.004700418662779039;151.0;0.16806429104466997;0.082500050600867;0.006826025074968838;150.0;0.17623190311156772;0.08494226963985427;0.007236541210270473;148.0;0.17943797486648205;0.08949028915382043;0.008032750164453505;157.0;0.1838358986833086;0.0561064083178923;0.003157472110814249;156.0;0.16294520477183289
0.05935460132781708;0.0035336985197123084;158.0;0.16084528221200944;12.0;0.06600456552429083;0.0043691311884147335;164.0;0.16580121400261408;0.07182616860344843;0.0051737673257474595;159.0;0.16823028405220802;0.07358960935870817;0.005431624098207206;161.0;0.16596674122619973;0.0734747583455411;0.0054147168188080535;163.0;0.16285736467528072;0.06984523429818462;0.004892402467146809;161.0;0.15893751438477122;0.062022416136839134;0.0038585277701993666;158.0;0.15561080930907573;0.05629711166156832;0.003179392840847159;162.0;0.15591964447839876;0.04679327885357348;0.0021954368139612095;156.0;0.14502455652516325;0.04793739202739348;0.0023044918723926495;162.0;0.1453526108544541;0.04972334601168399;0.0024793940978106196;164.0;0.14537654525517774;0.05394456897935157;0.00291714357151952;169.0;0.14727991216267697;0.06197656945969559;0.0038509427671606995;166.0;0.1541344132003725;0.06527864288392694;0.004272335154746159;161.0;0.15737257962835674;0.061561704788142046;0.0038020294845583368;161.0;0.15681211932140307;0.010334815963404341;0.00010715568470529236;152.0;0.07380743712121172;0.06357862142755472;0.004055280089000845;158.0;0.16913456868468632;0.06405864837228438;0.0041169178810929186;157.0;0.16906971903742674;0.06476790262440243;0.004208565511724126;154.0;0.16865958144577262;0.06639109847575371;0.004422044103656693;155.0;0.168485763190171;0.06815959767448075;0.004660669458302395;157.0;0.16698094466483906;0.06519787012625934;0.004264635510696522;162.0;0.16326640368967532;0.05927450891962648;0.0035249505232161082;158.0;0.15818379604566157;0.06262458583141901;0.003934636411073407;163.0;0.16758727180848348;0.052241928044203995;0.0027381232444580136;152.0;0.15200571655850112;0.05232476528805298;0.0027466655698477633;157.0;0.15212358524793657;0.054055434865334866;0.0029315222431254423;151.0;0.15245785474566723;0.060184001771785685;0.003633919974253469;150.0;0.15698816880136227;0.0718894377581274;0.0051849876146105155;145.0;0.165593313221534;0.07317615820799422;0.005370828822128792;151.0;0.16943763852928018;0.08114575250144596;0.006602191656222391;163.0;0.17797773716710572;0.052097629073568956;0.0027230219969785383;156.0;0.15180810289309013
0.05016686748126985;0.0025248183625434274;152.0;0.15145028068165223;12.0;0.05435063603980603;0.002963643445331584;154.0;0.15490847415043915;0.056879584348678486;0.0032458094736672765;159.0;0.15603972537589328;0.05816327880629861;0.0033940184393380386;163.0;0.15506284027136452;0.05921472502580103;0.0035177383339527273;159.0;0.15410644368498327;0.05765123143921408;0.003334422780752669;154.0;0.15111262248590512;0.051449823835535174;0.002655729389982563;160.0;0.14691595673167;0.048060605959254904;0.0023168879073906033;156.0;0.14764841475368418;0.04176277189416307;0.0017498411581697616;154.0;0.1393158149223214;0.042529428088638646;0.0018143432099796846;157.0;0.14020227283180045;0.042839745803668824;0.0018412481139087511;158.0;0.1398034525145586;0.04461340207061291;0.0019965470457241363;164.0;0.1419946235255021;0.04996289080784213;0.0025025374534192236;168.0;0.14670968689574704;0.05233978011307701;0.0027460314892089623;166.0;0.1485241510669625;0.05070871115292005;0.002578512508806132;165.0;0.14868040342030414;0.009281488091132283;8.642744309944784e-05;149.0;0.07196863999035832;0.05826842665210844;0.003405037232070905;147.0;0.1415997921107226;0.06076591856169848;0.0037018751495913682;149.0;0.1420336160104234;0.0638134007602742;0.00408014030115912;145.0;0.1426714055928368;0.06446161091330398;0.004161269660004633;145.0;0.14318809197022217;0.06300802647184393;0.003976205196487065;146.0;0.14151246558065406;0.05931973462463698;0.003524556595814589;145.0;0.13862232338236055;0.05463040087462874;0.002987948089543441;143.0;0.13538490076410764;0.05701815394850299;0.003260023187442923;157.0;0.14186754268676804;0.0492365655358367;0.002429487668967333;155.0;0.1330773397093018;0.04963012195487665;0.0024683233691922333;155.0;0.13392149759374614;0.05158598078207204;0.002667420344319852;152.0;0.13498453407207592;0.056264097755890634;0.0031732098645846953;156.0;0.13914587825636748;0.06545424560691117;0.00429522910766455;152.0;0.14691997762555944;0.0718787406836123;0.00517856523297342;155.0;0.15171472902913016;0.07514765543202301;0.00566144667537333;154.0;0.15726926011937536;0.04823958289854894;0.0023326051712759684;155.0;0.1310931906900266
0.11286512916648633;0.012778733608119677;143.0;0.18203385374338146;12.0;0.12483431198570583;0.015632116982959368;147.0;0.18464938425749539;0.1377615851336606;0.01903574893235947;156.0;0.18749367925203603;0.14278679796809338;0.020448673622440683;159.0;0.1905058504244957;0.14130892749099142;0.020027391285591358;153.0;0.19130753220017643;0.1313669019945519;0.01730861401879772;153.0;0.187730479625242;0.12102078309054125;0.014688764930513855;155.0;0.183343726769643;0.10925225446940706;0.011973880626988299;151.0;0.18159372161118392;0.11177274794152808;0.01253360172407683;153.0;0.17929667805250124;0.11774823853543223;0.01390955183745214;149.0;0.18057790311050997;0.12108572418730297;0.014709621676567265;147.0;0.18173207402873137;0.12845898716037366;0.01655538819495688;153.0;0.18518069987381536;0.1367583027242448;0.018763193826172468;154.0;0.18973136429781762;0.13795039653768063;0.019091186570281443;157.0;0.19059716381656472;0.11642719627364863;0.013597768133303515;154.0;0.18468270926291766;0.010153526240784947;0.00010343097908695751;160.0;0.07594035798752508;0.10028100410678692;0.010089305495861869;145.0;0.1889157153963239;0.1098430360657698;0.01210414128651102;150.0;0.19135589887110155;0.12197522680835252;0.014923471498685132;145.0;0.19488704605680826;0.13074004057535502;0.01714726786226477;148.0;0.19698057589015933;0.13401664184794596;0.0180165793482095;143.0;0.19584793342516713;0.12567336647204033;0.015843737121394492;143.0;0.19098628927956066;0.11355389697197857;0.012935659969769225;144.0;0.1855496462318958;0.10055881467240493;0.010144927040772982;144.0;0.1840459355755836;0.09477941115532895;0.009012315382236825;145.0;0.1770129053029607;0.09550916695467933;0.009151369107451039;144.0;0.1762092808819635;0.09795561354759241;0.00962462424505994;145.0;0.17555189074625172;0.10139926321417067;0.010312239093524763;154.0;0.17666751544053982;0.11300716993380008;0.012806764841957979;154.0;0.18016318759924094;0.1311903532905508;0.017259155887743197;145.0;0.1865953263581687;0.15148557792213105;0.0229928221039828;140.0;0.1930806915899465;0.09477125926207089;0.009010936542452195;148.0;0.17706137594394805
0.13626555079182315;0.01862380343837562;149.0;0.2099150206056342;12.0;0.14734757769617582;0.021776911178005218;149.0;0.21384334737259783;0.16113608517530906;0.02604184458628258;149.0;0.21969256718038863;0.1671103860364027;0.028006629514472494;142.0;0.22334663617825876;0.16427239355608583;0.027059699558228158;144.0;0.2228910678872651;0.15291017801338344;0.02344557392368827;146.0;0.21872454179633236;0.14208250420468901;0.020240015424958287;145.0;0.21494913728044218;0.13857725720921127;0.019263652176439678;152.0;0.21179664843341212;0.13006863333046265;0.016965034231536336;142.0;0.2074764361823786;0.13560909768354995;0.018438009051626666;136.0;0.2073495085289755;0.13964309253712892;0.019555658620117673;139.0;0.20770985422317392;0.14982547817085706;0.022502978444078954;138.0;0.21082640919626686;0.1617359808309564;0.026227098876838845;139.0;0.21546310996364956;0.1699994934644889;0.028975813299524734;139.0;0.21889710279299188;0.14807782292697336;0.021990317354495286;144.0;0.21114897138238908;0.011739975426622615;0.00013824914922113185;160.0;0.07937666856146426;0.12896398751401533;0.016667575458336466;157.0;0.22717469659140707;0.14233241379683784;0.020308102787405073;155.0;0.23233255937782116;0.15501809439456773;0.02409194088136653;154.0;0.23781169489160697;0.16074179044585366;0.025905356441651057;161.0;0.23916902259494965;0.16143547370723677;0.026132485408175008;159.0;0.2372175636758861;0.150959945139945;0.022850493409057534;163.0;0.23170413018781513;0.13581755222084985;0.018497884161404507;163.0;0.22389537043510543;0.1285035297090683;0.01654187158231395;156.0;0.2216071992835177;0.11099357889524634;0.012348372239305853;158.0;0.2112450557943961;0.1121245941108834;0.01259666680072003;154.0;0.21017358407210324;0.1154812720127092;0.013367892403427064;155.0;0.21041386907593393;0.12143221411777548;0.014773889703417802;157.0;0.21140405088322173;0.13802405724013472;0.01908558918756403;153.0;0.21504630341036404;0.15623937273728677;0.024465333688101214;147.0;0.22117089749678592;0.18241992393046225;0.03337310523437157;146.0;0.23126317007329017;0.11092159331559276;0.012332176973633034;159.0;0.21161280794915632
0.10238337840660489;0.010515037984452044;166.0;0.2012004006775461;12.0;0.10845405536226937;0.01179855655662228;158.0;0.20567341134481884;0.11580219533154881;0.013449453160841056;154.0;0.21192823439451292;0.12103878156684776;0.014691069911824528;152.0;0.2157140424151145;0.11923448835872195;0.014255222944328584;159.0;0.21515209002988728;0.1126455346384051;0.01272234513893983;165.0;0.21062805506858318;0.1047594534189099;0.011005387849045345;163.0;0.20710380018907934;0.10595320077833137;0.01126137733938371;163.0;0.20101732674873382;0.09197607407174896;0.00848580723941629;153.0;0.197619508411556;0.09452558161561755;0.008964385903537268;149.0;0.19760189826687793;0.09785808412134707;0.009607110855185499;153.0;0.1967373703001489;0.10547754893716592;0.01116208533415063;153.0;0.19810369034211767;0.11472243915965688;0.01320326053652705;161.0;0.20089167589056697;0.12439648290473648;0.0155253160944011;158.0;0.20416728437474707;0.11200495095233097;0.01258473135503787;163.0;0.19899526143250637;0.01240261174073935;0.00015432689146290695;149.0;0.082370604988566;0.12577341292294153;0.015871120825667287;153.0;0.23319746047539971;0.13574085521747545;0.018486216513364424;150.0;0.23833340804932293;0.14612582232443216;0.021422785164175565;153.0;0.24201155539699318;0.1506103250203835;0.022757945282314198;155.0;0.24291829824812797;0.14907140653065087;0.022295246024147078;151.0;0.24269374145914005;0.13851558267608088;0.019249450655482052;150.0;0.23785692607591405;0.12407626179735558;0.015443398538320592;154.0;0.22983687249496393;0.12510246889851998;0.015701716778912186;148.0;0.22869230872592597;0.10576951738351945;0.011221057167825638;159.0;0.2168570283465869;0.10683124641310394;0.011449064913846552;151.0;0.21582524143534063;0.10999070302549135;0.012134981381758227;151.0;0.21586912612108666;0.11783129709748293;0.013927700925803345;152.0;0.2176383153452529;0.1309719909448569;0.017209111815998053;145.0;0.2213012714372867;0.1374284437812695;0.01894818396396686;140.0;0.22511194271497098;0.156004426549408;0.0244121133786149;138.0;0.23341042853475413;0.10515640138168582;0.011091551651343044;157.0;0.21694761629572806
0.09423900960556482;0.00889987145475858;160.0;0.1943607324705047;12.0;0.1043817617853309;0.010921385433385881;153.0;0.19948902489612355;0.11090695849703046;0.012322928533063365;152.0;0.20481724318988595;0.11591729648005224;0.013465115212029095;164.0;0.2096264625397075;0.1149227131351419;0.013234793969541591;171.0;0.21035716264467821;0.10904987387528957;0.011916762041331031;176.0;0.20571518439641673;0.09860274463688763;0.009738839420219877;174.0;0.19975835447396476;0.08788052954771636;0.007742007355517425;159.0;0.19071758537211614;0.08434018205244709;0.007123866442435491;162.0;0.18811343106279488;0.08782471743243739;0.007726749182895385;164.0;0.18978006699208297;0.09302197857660685;0.00866742560482524;162.0;0.1907672840195053;0.10095319367064229;0.010213221756862638;156.0;0.19288847107988272;0.10943338869973851;0.011999903180363015;160.0;0.1959989045778341;0.11109641696912281;0.01236850997992548;159.0;0.19593324585585503;0.0926067918541206;0.00858965715952388;165.0;0.1912106537038078;0.01064517592580655;0.0001136900666912959;151.0;0.07771895481944188;0.1108816658150064;0.012333580139115514;148.0;0.2272901852821629;0.11835677108328901;0.014054098428203874;154.0;0.23087698613509114;0.13026475180316688;0.017024128718829922;151.0;0.23555883751133397;0.14000319133137742;0.019661809140215983;151.0;0.23722771060795828;0.14226190316197787;0.020301166302019426;147.0;0.2371430361897235;0.13105718660466376;0.01723096713876095;145.0;0.23053545377636597;0.11495581144868014;0.0132575636368523;148.0;0.22147076127935206;0.11076886813242054;0.012307651320581788;148.0;0.2233411349267309;0.09826337090939744;0.009687087242024996;153.0;0.20810624115411575;0.09915888783084703;0.009863435173901178;145.0;0.206800375532832;0.10227945290882696;0.010494161257258022;144.0;0.20610269795381472;0.10840740513637416;0.011787031879539448;150.0;0.20579503381928788;0.11693294719263496;0.01371139625975401;151.0;0.20805773109522074;0.12216239056937177;0.014965944591312078;144.0;0.21291754919032144;0.13466192576464453;0.018189088102615745;136.0;0.22070633300891404;0.09805508505522649;0.009645898174110287;150.0;0.20852088655308693
0.08290288637524718;0.006892876481381432;161.0;0.18602455425887332;12.0;0.0903621998651862;0.008189604901032611;163.0;0.18900801524624644;0.09584065582528078;0.009213454792166122;162.0;0.19095794960578613;0.10213035978157083;0.010464342291401321;167.0;0.19492656451403073;0.10224733648454076;0.010488543492731232;167.0;0.1967716854868403;0.09724486777956837;0.009487083091300828;166.0;0.19359659001167748;0.08714078881033227;0.007618320091147812;169.0;0.18635828371282043;0.07940227929193906;0.006324102329155208;162.0;0.182630703940571;0.07291311068013154;0.005333234659087633;165.0;0.17335540672064745;0.07529459308494037;0.005687323415012397;166.0;0.17518322569565534;0.07982158735364454;0.00639165502199263;162.0;0.17679591808876763;0.0875451593185486;0.0076890477462531245;152.0;0.17958796085996692;0.09815057085330313;0.009663450809480771;151.0;0.18481143175219195;0.1009190763766339;0.010217397649056685;148.0;0.18563490700979032;0.08404912052784017;0.0070872765488812755;157.0;0.1823769052503471;0.008887263480295513;7.920849468842982e-05;151.0;0.07174275200683788;0.08372570356375347;0.007023773357218357;151.0;0.19408040116221567;0.09012281904620173;0.008136480131516239;155.0;0.1974477422674291;0.09935661277218016;0.009898448510620156;156.0;0.20408813092662453;0.10527248013976592;0.011115607750317601;160.0;0.20525724934440706;0.10680421052105098;0.011442905521721754;156.0;0.20288369014973864;0.09843052242109598;0.009719601676177431;161.0;0.19762678240754475;0.08523163074574057;0.007286102727889758;159.0;0.19059539904901934;0.08164635727179817;0.006677574178236629;153.0;0.19149142355149273;0.06820782902556914;0.004659365236905598;160.0;0.1781523222074911;0.06919532885941418;0.0047958186442462105;155.0;0.1778836888502034;0.07206837080170166;0.005198972821580537;160.0;0.17793887014240367;0.07724476643417044;0.0059728208662477855;162.0;0.17958394595670643;0.08774305059779562;0.007706879270656736;163.0;0.18519497366075402;0.09311882730003175;0.00868173255163434;156.0;0.19008424108224126;0.09758157849533836;0.009537809588477622;154.0;0.19484326424748744;0.06831876262395781;0.004678924326885256;157.0;0.17840883270894897
0.06844922321897363;0.0046947690007988485;165.0;0.18149419641626738;12.0;0.0724690689552913;0.005262616061651263;174.0;0.18317977595455456;0.07649449979524332;0.005863954971385244;177.0;0.1823615827230268;0.08058229483346506;0.006508638622862427;167.0;0.18332230401574312;0.08022611633346322;0.0064531369107295655;169.0;0.1847252019464021;0.07558941635039089;0.005730284566467055;165.0;0.18140477333783536;0.06865243984015584;0.004724644168021359;170.0;0.1752226961533797;0.0658348441015328;0.004343312725839934;165.0;0.17532951357293014;0.05928192587643665;0.0035230616792963475;163.0;0.16545702405646073;0.06084177533952905;0.0037121039399162304;159.0;0.16604825925108835;0.06221792326160466;0.0038800124790876415;154.0;0.16711117496940853;0.06515899374645948;0.004255874269377994;152.0;0.16964174807418478;0.07206969195959739;0.005207675599601593;157.0;0.17551201354774457;0.07372824329639047;0.005450433963261705;152.0;0.17530709393964428;0.06730387539161538;0.004539989482046945;157.0;0.17121511952661614;0.00999541606445185;0.00010022651775191975;159.0;0.0737275008934509;0.07209489797300805;0.005214393958819634;153.0;0.17910623833506842;0.0750327485320074;0.005648063394118683;151.0;0.18231349052330031;0.07729711059341227;0.0059943026387194245;159.0;0.18557121323238915;0.07783973839999056;0.006078230114260299;164.0;0.1857421693565536;0.07651863323897029;0.005873444666403662;158.0;0.18426559614460386;0.07333815310699852;0.0053944322768186646;166.0;0.18222087773098933;0.06739032285224365;0.004556010198670779;166.0;0.17838292070593517;0.07119653587706762;0.005085506781445457;148.0;0.17571416572266021;0.061803820440987464;0.003832195585600516;160.0;0.16969943030676735;0.06203012662884715;0.0038601171922314458;158.0;0.16974457368936532;0.06323694931103753;0.004011821241350066;157.0;0.16971323408797362;0.0665142319466863;0.0044383998637247245;155.0;0.17286611565490717;0.07440001513665606;0.0055527598902919365;159.0;0.17932588016423184;0.0798181674350189;0.006390847788135316;152.0;0.1831131322244353;0.08901554207819697;0.007948373820413425;155.0;0.18671866541378676;0.06203355937713556;0.003860719722296504;161.0;0.17000631462476445
0.07107676119127158;0.005068018028063533;158.0;0.18014926306911844;12.0;0.07540638295907184;0.0057044005675753575;162.0;0.1820008056679623;0.07889251945758534;0.006244279549249638;169.0;0.1827531519848792;0.08080860859356209;0.006551237844349913;162.0;0.1828851775199119;0.08025105264622537;0.006461429066402411;164.0;0.18399792089491832;0.07680924712962965;0.005918917203108081;158.0;0.18119141031309516;0.06940801118977252;0.004833358689192828;161.0;0.17554219522822037;0.06829821685575872;0.004679802694112908;159.0;0.17500067725090374;0.059243548197034944;0.0035211542834731368;154.0;0.16540876397592474;0.06039645483575543;0.003659573141406809;154.0;0.16603701897164694;0.0606215765972236;0.0036871486760708407;151.0;0.1657027829995;0.06271338201935381;0.00394580259222641;153.0;0.16723558630287386;0.06696887345054661;0.004499612538998841;156.0;0.17114265101165638;0.070071324406182;0.004926096086685587;150.0;0.17239656594842764;0.06995087218277003;0.00490916808840581;150.0;0.17151816606404607;0.011254926161694693;0.00012709215615576574;155.0;0.078824361207225;0.07643273122742467;0.0058592355867919015;150.0;0.1841299977390359;0.07919041185487342;0.006291105719287801;148.0;0.18563287426813385;0.0815866924499847;0.006677839178579731;147.0;0.18528779468969045;0.0817894754116143;0.006711413538532391;148.0;0.18321475562074757;0.07895696800326862;0.006254560013572223;145.0;0.1802510359896456;0.07453448030058542;0.005573535299469452;146.0;0.17773696093841423;0.0690424690342676;0.00478246073206189;154.0;0.17441502293765004;0.08185282652167854;0.006720854212317427;145.0;0.18144811981821074;0.06564436300754015;0.004321059030280403;151.0;0.17041937569263688;0.06560458791924322;0.0043164395230864214;150.0;0.17015123239173333;0.06677180156533033;0.004469436746615083;144.0;0.16994159687277532;0.06997236598628696;0.004908928878053311;143.0;0.1714434894930443;0.07802221620719148;0.006100924724336719;142.0;0.17606568745558096;0.0835099228596127;0.006987297504761707;141.0;0.17898922768702358;0.09992045208246753;0.010007878842401226;152.0;0.18863071353023603;0.06583350131545054;0.004347146396073902;153.0;0.16946577666041873
0.06702286998508629;0.004504828195175944;155.0;0.17610061719530679;12.0;0.07071733228969475;0.00501477960536408;161.0;0.17753213201190657;0.07298357397445393;0.005339898188066658;167.0;0.17888922190854287;0.07606325111403238;0.005800568068455338;159.0;0.17923634340975936;0.07671420977390118;0.005900272318151346;158.0;0.17982419312654277;0.07408666783834164;0.0055046012565055525;155.0;0.17667018048585614;0.06738281031524751;0.004554161128971653;154.0;0.1714745879142561;0.06327845165927738;0.004016096375149371;160.0;0.1721124149177341;0.05675448941685815;0.0032300444029626455;158.0;0.1637174058408775;0.05817751077916945;0.003395060887923067;159.0;0.16469131103087895;0.05784438132626382;0.0033563492055461116;157.0;0.16447268477653199;0.059037142174218765;0.003496505878418885;165.0;0.1653584213080112;0.062102061932013466;0.0038689833039995715;160.0;0.16719248098909087;0.06500835610342204;0.004239915350103031;154.0;0.16891468596195208;0.06568753282346747;0.0043287117798034855;156.0;0.17158880627402442;0.010866195718263782;0.00011845473498728557;150.0;0.07896381277227661;0.07583356690001522;0.005766905839140287;149.0;0.18442292975863314;0.0786073161633935;0.006196433358718882;146.0;0.18568913699951123;0.08186185723351441;0.006722008043639367;145.0;0.18636018907779278;0.08299836386337096;0.006910005789814953;139.0;0.18418549986349284;0.08004307419147268;0.006425843038127345;141.0;0.18080961227483694;0.0732986306153569;0.005389848101005322;148.0;0.17667490660895965;0.06592708492119878;0.004359560655815353;158.0;0.17143506001977823;0.07555635988106298;0.005725598414290414;150.0;0.1794378620937378;0.058008629101199874;0.003375194784583841;163.0;0.16452044107121874;0.05819975143060685;0.0033974088484374607;162.0;0.16368951315036268;0.060216867689659954;0.003636237207404041;159.0;0.1632405336548178;0.06466141309760388;0.004193237919001061;157.0;0.164449305492327;0.07523072377791522;0.005676518634333332;154.0;0.16784156629381194;0.07931839037497736;0.006310600961509063;154.0;0.16993165226385984;0.08639740998614297;0.0074841303197866246;155.0;0.17795849260382748;0.05773556394898072;0.0033434998388015224;163.0;0.16338189374481163
0.05928714479532247;0.003526106033714956;146.0;0.16650893600163644;12.0;0.06381360768136965;0.00408540497568487;154.0;0.16801461033874932;0.06732459589008326;0.004546666794277497;161.0;0.16801599104634307;0.06959374887586904;0.004857982044614917;149.0;0.16806187036714548;0.06933419412729741;0.004821426094881021;151.0;0.1673746250942238;0.06575854224375384;0.004337026700080928;151.0;0.16385410093695862;0.06044543820531995;0.003664001966935274;150.0;0.15912818688605518;0.05520647040289984;0.0030577111908364142;155.0;0.16212562818983306;0.05297621148874761;0.002813817408689915;164.0;0.15538410100984484;0.05381347657986876;0.002904001587384057;160.0;0.15569232487154194;0.05359063344991257;0.0028807238221276545;162.0;0.15781310724283681;0.05663430563505843;0.0032172073381995744;169.0;0.16234990964255916;0.061560875910323234;0.003801802072914086;161.0;0.16702497595215796;0.0625840518663799;0.0039293167920720256;161.0;0.1667452020875347;0.058119067746907456;0.0033886352126730798;167.0;0.16437117163928844;0.00973401924021739;9.505937779289091e-05;158.0;0.07409420341229819;0.06231421375719333;0.0038957191644413726;161.0;0.16849742120270642;0.0650725957672906;0.004248277273434741;158.0;0.1719279258758185;0.06695275176277382;0.004497362629777109;162.0;0.17454592985750514;0.06690423597176798;0.004490771993347737;157.0;0.17367760028535814;0.06449546998508249;0.004172858440452201;166.0;0.17227244707732095;0.05876660700634412;0.0034634972601740805;177.0;0.16706909956234647;0.05264606661012136;0.00277951071197963;178.0;0.16159229701380035;0.05582225250509686;0.0031263587916250594;163.0;0.16235156138673243;0.04754704173084828;0.00226699213486093;180.0;0.15410198497934383;0.048149263412862124;0.0023247516386282084;180.0;0.15332477580009654;0.05125330725184137;0.0026339646384182206;180.0;0.15334822269029513;0.05558759913226002;0.0030980475729365854;177.0;0.15420659698150108;0.06576483900461494;0.004335587917375717;170.0;0.15821442349479878;0.06907364367199131;0.004783015310689229;163.0;0.16108567133359133;0.06504310847298687;0.0042425685033135405;163.0;0.16337246066235442;0.046722278098387804;0.002188993838873448;178.0;0.15442124545883112
0.0503148649706514;0.0025382718944439216;150.0;0.1606445627845838;12.0;0.05346521761244552;0.0028661049881965293;147.0;0.16140210012295997;0.05741535477954056;0.0033057125017760917;153.0;0.16106819331516897;0.05822495270352611;0.003399360992859458;146.0;0.1604401497431247;0.057317516699012305;0.00329393657790085;143.0;0.15713862420472977;0.055605920631688725;0.0031001989932528122;146.0;0.15500170488010073;0.05049217700947934;0.002556479608622067;151.0;0.1515028519403121;0.049435183834854596;0.002449007691354804;150.0;0.1594704116907644;0.045487287833952596;0.002073631489569411;164.0;0.14783929544199953;0.04600450048575008;0.0021197436121773417;164.0;0.14830006585681543;0.04573886082550199;0.0020960998425353893;164.0;0.14916296401291745;0.04942569727094463;0.0024469924548693933;155.0;0.15356778309816194;0.054497103812119856;0.0029756276012061667;151.0;0.159585875435127;0.05612698833705926;0.003156031143205382;146.0;0.16226468193151614;0.05121140407283981;0.0026260992163501936;154.0;0.16084959412696187;0.010679908340787747;0.00011443285272486325;159.0;0.07470924703682692;0.05275032058107891;0.00278374871792353;156.0;0.15191059835567133;0.053580798133960765;0.0028740090255694097;156.0;0.1540891649702436;0.05460188312909014;0.0029872364728542656;156.0;0.1558943511419743;0.054323441194971095;0.002957562269034752;161.0;0.15531012862757426;0.05260016606900646;0.0027720431653258416;170.0;0.1533791082589393;0.049791243701768975;0.002483465084561892;172.0;0.1494254612504407;0.04681336759276511;0.0021927546407355773;172.0;0.14549524145764095;0.047496213245123584;0.002258586999322739;157.0;0.14434460249528738;0.04776294069995975;0.0022843067718763418;168.0;0.1425686721838246;0.048205425065702835;0.0023270063751158056;166.0;0.14191269009207563;0.05011231481300314;0.00251521933802246;171.0;0.1423117395708761;0.05341117481608198;0.0028564176616415926;171.0;0.14379034374635458;0.060638803855237344;0.0036839622058806535;158.0;0.14846650070959985;0.063656509829802;0.004062267968071462;144.0;0.15416353308695951;0.06350506212434642;0.004043245606835375;157.0;0.1573767119049962;0.0465146886233916;0.002165420709398747;167.0;0.14288837188761275
0.08984767118268167;0.008090367940777523;154.0;0.18270900991795055;12.0;0.10108382788518962;0.010230947145874799;146.0;0.18820758199033463;0.11304527837627212;0.012779115634310003;149.0;0.19280236274519608;0.11630359821864154;0.013527223022945374;147.0;0.19263215818370358;0.11476936739048318;0.013175111655141389;143.0;0.18911070994052598;0.11106614355744643;0.012344941255415971;149.0;0.18570695397959544;0.10112977072732197;0.010240903887559927;154.0;0.18037462439662064;0.09139097126200305;0.0083754566534924;150.0;0.18309508159158808;0.08425666369842336;0.007114797597289585;161.0;0.17178276165377857;0.08713562014473106;0.0076100776243777715;164.0;0.17344782787146473;0.08837440118781512;0.007828344103990487;159.0;0.17301359593798427;0.09240710756031441;0.00856075097587102;147.0;0.1754989429767733;0.10055721678956599;0.010138542156565242;146.0;0.1819028834885721;0.10986632085609127;0.012107611287127923;139.0;0.18581804275717487;0.09782236073783673;0.00959834277948801;146.0;0.18220577245229133;0.011606341725586932;0.00013514588365312114;157.0;0.07729324791761344;0.11409260994712093;0.013059109469950779;141.0;0.2036262829446076;0.12344904681104168;0.015289626877745764;144.0;0.20535415492941306;0.1356442846854858;0.018459427037672598;142.0;0.21049276525843638;0.14355608536038342;0.020675922775000476;150.0;0.21405083309483508;0.14396488081330594;0.020793725392240354;150.0;0.21346689989170675;0.13264335378784686;0.017651761664034586;149.0;0.2084495059681453;0.11595015833836546;0.013488366328059427;152.0;0.19932533749955444;0.11260597244343745;0.012721273398562053;149.0;0.20105134544503736;0.09042182945076441;0.008202700591833435;158.0;0.1889574503426402;0.09079277481532165;0.008269920937088528;156.0;0.18875899483196956;0.09306373619027918;0.008688221571433712;160.0;0.1895967062619863;0.09727279620565955;0.009489154042309801;161.0;0.19230463617337404;0.10657421657971539;0.011389795363475707;159.0;0.19806982144358362;0.11873303547141202;0.014139024967503178;154.0;0.20635636009993003;0.13547979877653982;0.01841259085445256;158.0;0.21398330662875098;0.09121444088020571;0.008347116554325455;159.0;0.18868465829973602
0.1323347549533115;0.01755543621178592;146.0;0.21045420788934863;12.0;0.1526355031842986;0.023358292476615597;145.0;0.2184113436663594;0.16529974147687088;0.027399834274250117;145.0;0.22388640250255415;0.1640551688460918;0.026991148826279635;148.0;0.22316590498043873;0.1568208198342176;0.024659634472834688;149.0;0.21984890269901752;0.1475115496263247;0.0218187300287577;156.0;0.21542179551927096;0.1335256565849711;0.017876805953676352;156.0;0.20862042423532004;0.1245910076481158;0.01555711211360271;154.0;0.20682616758870126;0.11740974800613883;0.013808766315228458;164.0;0.2007391847674488;0.12118058187624844;0.014711399568085266;162.0;0.20247376697088548;0.12230632942479408;0.014987889472534557;155.0;0.2021753331424421;0.12779381799696235;0.016359159945241127;155.0;0.20366628993886784;0.13568520830989328;0.01843557170306563;155.0;0.2101654727149521;0.14652970033673107;0.021501494974541523;157.0;0.21317545503362095;0.13032079035895255;0.017014427433888972;153.0;0.20733814756566932;0.01182803873626692;0.0001403421489121765;154.0;0.07937219512022009;0.13166234415576866;0.01738550944230478;152.0;0.2364493930174327;0.14660832507431376;0.02156122403533788;157.0;0.2400794247507891;0.163608258998794;0.026854703573367705;158.0;0.2460231839212935;0.1741203022940131;0.030415196462036345;159.0;0.2502987916462734;0.17351693436884355;0.030204825705419047;153.0;0.2495002326022919;0.15754976423628742;0.02489959340192695;153.0;0.24279180185931531;0.13710458131529074;0.018853342481193098;152.0;0.23206683229833103;0.12703428855427443;0.016186729349826665;159.0;0.23425218076711127;0.1029033715387346;0.010618195712101958;165.0;0.21688360198141243;0.10327741470258324;0.010697079166499613;167.0;0.21703840339886735;0.1053323754592267;0.011127327715171095;170.0;0.2175489374119217;0.10992256219660436;0.012115537929589701;170.0;0.2199170615007593;0.12102963156981741;0.01469161644821942;170.0;0.22666550334214186;0.13360316265280958;0.01790445919017734;167.0;0.23465506866751654;0.1508989792542029;0.022842725658744484;167.0;0.24191162740123826;0.10439350262253146;0.010928404872394023;165.0;0.21654333224621203
0.16504395951078518;0.027327997323436052;139.0;0.22883843697804235;12.0;0.18753631704606863;0.035277657681039166;144.0;0.23604550882463046;0.18995916026431003;0.03617693672616088;144.0;0.2380185994040196;0.18106074985321094;0.032863317601092436;148.0;0.23621532059272027;0.1714733242462908;0.029460593249291536;153.0;0.23206407269070825;0.15962349292481445;0.025541457851767292;155.0;0.22782966028393883;0.14303221966048746;0.020511343657291535;154.0;0.22244030522260627;0.14634632387592728;0.021487413580820392;147.0;0.22213449471808655;0.1389638763999929;0.0193727083668253;153.0;0.21875563254441896;0.14358930190827307;0.020685236401350428;149.0;0.22000712371567363;0.1454742625010366;0.021232163896541197;144.0;0.21941774297361788;0.15018333139228776;0.022628175812780982;146.0;0.2200639960860214;0.15818158257225073;0.02510338070834836;150.0;0.22359986094099937;0.16559461227865557;0.027510521830340504;153.0;0.2247982266599663;0.14809646733971246;0.02200330057856609;142.0;0.22216081319953201;0.011816184841150875;0.00014006884936676342;163.0;0.08070985750472413;0.10238457260171652;0.01051658600379237;157.0;0.21822198411025232;0.11366807620516858;0.012962570969575449;161.0;0.22140881246301752;0.12811248612530124;0.01646659613951091;155.0;0.22541387668490162;0.13718355964749726;0.018879748598450957;152.0;0.22723395573243646;0.13619144854182152;0.01860303721564944;156.0;0.22503489830975912;0.12386376896282897;0.015383445042005674;158.0;0.2192180236213207;0.10988378480458255;0.012108706577339194;157.0;0.21212688898824847;0.09622749161596154;0.009289776918787082;160.0;0.21545437039391294;0.08882626565871973;0.007914482253223316;166.0;0.19988085661137361;0.08934889888662977;0.008009184285965568;170.0;0.19994279117807248;0.09069506165862729;0.008252484375791692;171.0;0.19959731488255672;0.09576685992694076;0.009201326780591552;167.0;0.20212276267690518;0.10596214937690288;0.011263006370965884;161.0;0.20801980672092074;0.1109461224315094;0.012347518882553222;161.0;0.21415662378175654;0.11725011321239373;0.013792604877928808;160.0;0.21900720174685767;0.08887111878370024;0.007922617455771134;163.0;0.19978884352971657
0.14888265205818205;0.022231332021189255;141.0;0.2207012470119721;12.0;0.16768906715392468;0.02820531196911645;143.0;0.22852439980213698;0.16779810634906864;0.02824305862938857;142.0;0.232069532329212;0.16064969703656823;0.025883473753618505;138.0;0.23180972439313924;0.15464957943638533;0.023984543011050685;141.0;0.22929564144389689;0.14608412209583507;0.021395550494672125;141.0;0.22457405143128034;0.13113081940842525;0.01724229944299565;143.0;0.21790255509514037;0.13270402090091213;0.01765938156318909;144.0;0.2162275785584776;0.12675918331600208;0.016115585180423955;146.0;0.21211401423855678;0.13152792282700693;0.017351534177257454;143.0;0.21328358350939877;0.13600229252347035;0.01855168388910944;145.0;0.2133550255526822;0.13899475310375248;0.019374634243828612;142.0;0.21497372701903564;0.14852816954880477;0.022122205592018558;144.0;0.21676807075285365;0.15448216734939643;0.02393089168819512;142.0;0.21688313567537792;0.13597087169183703;0.018534634297927288;139.0;0.21411235898262856;0.011063768559796829;0.00012279570972727362;157.0;0.07659088814800762;0.09423642826764343;0.008909437949736195;152.0;0.2073248634906051;0.09839138029934796;0.009712309588663561;151.0;0.20982801776504076;0.10764961999020264;0.011626263728771034;145.0;0.21207792596344055;0.11450118889497489;0.01315340522345396;145.0;0.21263597849520802;0.11636595362000603;0.013585356394410119;155.0;0.21104753834310339;0.11012418195774017;0.012167102301514299;158.0;0.20682558752332436;0.09913548425152723;0.009859723306599635;158.0;0.2004699569561806;0.0924596115993005;0.008576592666632653;158.0;0.20417090925746068;0.08423950675615362;0.007119380308051957;162.0;0.1899082444516081;0.08533069518559594;0.007304672583610615;164.0;0.1902863181509972;0.08747103258917223;0.007676042050290605;161.0;0.18991575756867962;0.0928875805501644;0.008656280894422072;158.0;0.19162765102172327;0.10312142689120661;0.010668718125984395;154.0;0.19637025315188522;0.10983916887448948;0.012103494486902986;161.0;0.20469537883435437;0.12001401185905246;0.014450203320166355;155.0;0.21470342700095646;0.0834412734538679;0.006985105047485691;159.0;0.1899869243479448
0.08946362473031155;0.008028127863409297;144.0;0.18987655364096717;12.0;0.1020818020446638;0.010453016220417426;147.0;0.19594875931681688;0.10621613845812775;0.011318199766293807;141.0;0.19888433901210925;0.10342161766721335;0.010731228804609475;138.0;0.19937107897362186;0.09903335685075629;0.009837637824857012;136.0;0.19991882616124348;0.094102540579166;0.00888264992207897;142.0;0.19651131148878412;0.08557460797266045;0.007346527283965417;150.0;0.1894630998288353;0.08175580284645005;0.0067038700018813785;147.0;0.18774530238509501;0.07710324487474741;0.0059613541955247235;152.0;0.18147330163096118;0.07955737227811471;0.006346727945227183;149.0;0.18169466496906955;0.08489116413493092;0.007226628364853334;146.0;0.18214706568287864;0.08614953397523999;0.007441116538144615;144.0;0.18427468373541295;0.09489078105938734;0.009030302234673984;143.0;0.18863989791152921;0.10219223744531655;0.010471791886851045;144.0;0.19139823728429775;0.08968714066745873;0.008065853581370486;148.0;0.18888849116633963;0.010533871175933955;0.00011132477334873034;151.0;0.076778026244512;0.08034091907200078;0.006473191177542836;145.0;0.19390047150680037;0.08373624863513333;0.007033476139349456;147.0;0.1949550248951142;0.08869990560855832;0.007891214662413649;153.0;0.19405651923341907;0.0925099278914475;0.008580813377408104;154.0;0.19367562044972683;0.0935735119658268;0.00877420396661953;158.0;0.1924456083386754;0.08898299506696054;0.007937573362544881;164.0;0.18912711456190737;0.07962217105270115;0.0063545991272155565;163.0;0.18218352419524278;0.07617850492437289;0.005815053026504422;156.0;0.18890216487411585;0.06759337499319912;0.004580511947588677;166.0;0.17453670175439123;0.06944517113552796;0.004835185647288738;162.0;0.1749125452434163;0.07243735807313777;0.005262671013170851;155.0;0.1750066683598424;0.07850783767198119;0.0061827954569940394;155.0;0.17643717477315415;0.0904372982346952;0.008205582050184434;159.0;0.1812838713717146;0.09789945299649455;0.00961543841960697;163.0;0.18882500657376539;0.10763154625748286;0.011617996250526718;155.0;0.20028244972722292;0.06682859971481776;0.004477800320260345;167.0;0.17377676491336655
0.07261784418027468;0.005289279219995891;140.0;0.18622867260326034;12.0;0.0800803788445873;0.006432484971414713;146.0;0.18918725805276643;0.08282952656422879;0.006882849366830561;139.0;0.18795615264379337;0.08210565734980184;0.006763350476220416;140.0;0.18648350187478482;0.07944552462327706;0.006331574160937741;146.0;0.1867937511564915;0.0739691979878176;0.005488372945394083;153.0;0.18442417697366173;0.0665838551905815;0.004447788562075451;156.0;0.17995851317592848;0.0675190591319426;0.004572944643922587;141.0;0.1813928544294899;0.05921664567349071;0.0035180623280199274;147.0;0.17300478461810181;0.06014366299722168;0.0036290787763500233;149.0;0.1729031817333509;0.062026809304964216;0.0038594393039026215;143.0;0.17345439864764914;0.06392016484002652;0.0040988460335179885;145.0;0.17546066048641926;0.07227474704751398;0.005240717447916648;152.0;0.18076261764142137;0.07963047518435139;0.006361608495160311;154.0;0.185234908130949;0.0745673941240611;0.005578470439550032;149.0;0.18482523737436346;0.011008885747318098;0.00012158505801363217;155.0;0.07795038306149404;0.06077765981401358;0.003705773723300282;139.0;0.17401361883153393;0.06569063353229865;0.00432745701830298;141.0;0.1727380564776247;0.07176438423237629;0.00516447151898694;153.0;0.17220789834327163;0.07715590651621156;0.005970576627991651;152.0;0.17345606487949244;0.07856226725676324;0.006190595394360785;147.0;0.17357334589779053;0.07406333934679149;0.005500427669409147;152.0;0.17033644045310103;0.06487930402854442;0.004221298504196638;152.0;0.16376780959683326;0.05955102532485592;0.003557749921146488;153.0;0.17269296722342364;0.05497188472432492;0.003031034390403836;158.0;0.16001730104574605;0.05715590982315716;0.003276152354134381;154.0;0.16017253863861364;0.05990778762610787;0.003597636706299023;147.0;0.15995632466583923;0.06623526003967942;0.004398426199236945;147.0;0.1617405645501917;0.0795068131501807;0.006337667507770337;148.0;0.16793587141570945;0.08606217111409915;0.007425893071616369;151.0;0.17303593757050106;0.0914707078859227;0.00839357367824362;144.0;0.18231957395267046;0.05444179124377135;0.002972851683046277;155.0;0.15801745639109965
