rms_s1_ch1;var_s1_ch1;zcr_s1_ch1;wl_s1_ch1;rotule;rms_s1_ch2;var_s1_ch2;zcr_s1_ch2;wl_s1_ch2;rms_s1_ch3;var_s1_ch3;zcr_s1_ch3;wl_s1_ch3;rms_s1_ch4;var_s1_ch4;zcr_s1_ch4;wl_s1_ch4;rms_s1_ch5;var_s1_ch5;zcr_s1_ch5;wl_s1_ch5;rms_s1_ch6;var_s1_ch6;zcr_s1_ch6;wl_s1_ch6;rms_s1_ch7;var_s1_ch7;zcr_s1_ch7;wl_s1_ch7;rms_s1_ch8;var_s1_ch8;zcr_s1_ch8;wl_s1_ch8;rms_s1_ch9;var_s1_ch9;zcr_s1_ch9;wl_s1_ch9;rms_s1_ch10;var_s1_ch10;zcr_s1_ch10;wl_s1_ch10;rms_s1_ch11;var_s1_ch11;zcr_s1_ch11;wl_s1_ch11;rms_s1_ch12;var_s1_ch12;zcr_s1_ch12;wl_s1_ch12;rms_s1_ch13;var_s1_ch13;zcr_s1_ch13;wl_s1_ch13;rms_s1_ch14;var_s1_ch14;zcr_s1_ch14;wl_s1_ch14;rms_s1_ch15;var_s1_ch15;zcr_s1_ch15;wl_s1_ch15;rms_s1_ch16;var_s1_ch16;zcr_s1_ch16;wl_s1_ch16;rms_s2_ch1;var_s2_ch1;zcr_s2_ch1;wl_s2_ch1;rms_s2_ch2;var_s2_ch2;zcr_s2_ch2;wl_s2_ch2;rms_s2_ch3;var_s2_ch3;zcr_s2_ch3;wl_s2_ch3;rms_s2_ch4;var_s2_ch4;zcr_s2_ch4;wl_s2_ch4;rms_s2_ch5;var_s2_ch5;zcr_s2_ch5;wl_s2_ch5;rms_s2_ch6;var_s2_ch6;zcr_s2_ch6;wl_s2_ch6;rms_s2_ch7;var_s2_ch7;zcr_s2_ch7;wl_s2_ch7;rms_s2_ch8;var_s2_ch8;zcr_s2_ch8;wl_s2_ch8;rms_s2_ch9;var_s2_ch9;zcr_s2_ch9;wl_s2_ch9;rms_s2_ch10;var_s2_ch10;zcr_s2_ch10;wl_s2_ch10;rms_s2_ch11;var_s2_ch11;zcr_s2_ch11;wl_s2_ch11;rms_s2_ch12;var_s2_ch12;zcr_s2_ch12;wl_s2_ch12;rms_s2_ch13;var_s2_ch13;zcr_s2_ch13;wl_s2_ch13;rms_s2_ch14;var_s2_ch14;zcr_s2_ch14;wl_s2_ch14;rms_s2_ch15;var_s2_ch15;zcr_s2_ch15;wl_s2_ch15;rms_s2_ch16;var_s2_ch16;zcr_s2_ch16;wl_s2_ch16
0.11965796244934736;0.014364413796430947;169.0;0.16418082390389105;12.0;0.12226393181992354;0.014996276994171937;171.0;0.16438625489147285;0.13227796521968632;0.01755096596427343;171.0;0.16773207050505146;0.12161328469866814;0.014837208503817208;167.0;0.1611435342438254;0.11187373075429444;0.012556096489762527;168.0;0.15752334825141423;0.10535981346755605;0.011136785737251928;168.0;0.1547986587195698;0.10021938701878803;0.01007656153340371;163.0;0.15305279019081444;0.009897753300960042;9.827176219550642e-05;143.0;0.07082140084080484;0.09870090314650024;0.009773579841395298;166.0;0.1550545370017229;0.12373214758192781;0.015359620189168536;163.0;0.1650388062111114;0.14326370643962044;0.020591525248422362;161.0;0.16717872988615098;0.13237880571618799;0.017580812165039424;162.0;0.1567577896857911;0.12446519393949375;0.015541398353648568;158.0;0.156639666636962;0.12669584308841508;0.01610284984590022;163.0;0.16558692855646653;0.1396389123672988;0.019559076063567583;161.0;0.1786006909217968;0.09585384477089436;0.00921747052305818;164.0;0.15439827163741782;0.19399915710287327;0.03774942523020093;162.0;0.20291013867599264;0.18082305425984002;0.03280089174890593;161.0;0.19838655583761766;0.17027464477014617;0.029084509324199977;157.0;0.19526450599614606;0.1588355019656462;0.02531067909472421;159.0;0.19222888755039957;0.14974456526194135;0.02249211891272159;160.0;0.1897667876218502;0.14267604966400615;0.02042096581537949;158.0;0.18730282477835003;0.1376660535589578;0.019013032660769397;159.0;0.18598595810799037;0.00706946773072103;5.0108842434328373e-05;156.0;0.06357551692588267;0.13399104452598365;0.018010631111622266;162.0;0.1885247305045837;0.1336128941266857;0.017910448783099834;152.0;0.19081578295223844;0.1395744837833678;0.019543083294851406;159.0;0.19409036117167183;0.15671561951208604;0.024639043292698774;157.0;0.19955300847230795;0.17619308357156657;0.031142520182445024;154.0;0.2086942054463724;0.20827653443340713;0.04351749091976945;149.0;0.22467428292118685;0.2384059188739503;0.05701895526016594;156.0;0.23551549021666054;0.13014753082918482;0.016992749855838263;163.0;0.18363799020925264
0.0868401823777699;0.0075651340559217345;151.0;0.14093938574157971;12.0;0.0807899605223623;0.006546439532177813;150.0;0.13653804596732994;0.07621343035174499;0.005824599359165721;150.0;0.1340496054504756;0.07244331193797987;0.005261830578413299;147.0;0.1301816428034256;0.06889940200236491;0.004761141117268231;152.0;0.12792201980022763;0.06647585238453028;0.004431914272610837;155.0;0.12616570811075936;0.06449469701808298;0.004171986102992327;159.0;0.1255172385300222;0.009472812856358944;9.000813943870454e-05;149.0;0.06798435743631413;0.06142737222642713;0.0037850520940489038;156.0;0.12457985900161227;0.06868873603314375;0.004733583673994242;159.0;0.1250211166965038;0.07600934488439066;0.005796320904095585;158.0;0.12641428130077134;0.07867956285026914;0.0062106726150062555;153.0;0.12898477714548093;0.07976059662479168;0.006382530071948356;154.0;0.1322704226705912;0.0853824088400717;0.0073134000437792375;154.0;0.13947336104976077;0.09831062912020765;0.009695449798826633;154.0;0.1505237627797433;0.057874768176785364;0.00336021550016285;153.0;0.12298906241349555;0.0949050684414167;0.009010319778558373;174.0;0.16307995764496352;0.09613007168181724;0.009241388775416335;172.0;0.16269671454074713;0.09290809671923352;0.008631835651181426;166.0;0.1605696842104536;0.08485088253013261;0.007195977016336412;167.0;0.15627410783358697;0.0787161429848139;0.0062000358681028375;169.0;0.15281855330976382;0.0749011129764417;0.0056147819726504915;170.0;0.15044547569236497;0.0724219165123556;0.005247896196651156;173.0;0.14892291168462835;0.006642932125680128;4.426708591563934e-05;151.0;0.06086144850499495;0.06753478167497565;0.004563591528301789;174.0;0.1491305894041704;0.06879770694170827;0.004732865723049866;168.0;0.1510664857488262;0.07311884937569742;0.0053474561770953995;165.0;0.1550119618235245;0.08163313043017374;0.006665529673075063;161.0;0.1579112569798469;0.09345861015276417;0.008735535159470382;161.0;0.16420714639419975;0.11052432602365266;0.012208235030789077;158.0;0.17421429368403993;0.12122171615061487;0.014693447376678326;160.0;0.18007586788931879;0.06451961022045588;0.004166762251576446;175.0;0.1446110222574965
0.05052897369728098;0.0025615152127320046;142.0;0.11851538242050792;12.0;0.05035203899200923;0.0025434707153663885;139.0;0.11581754218134886;0.05138297929774696;0.0026483658739742855;136.0;0.11464998313701102;0.048608034042227646;0.0023700172709740087;133.0;0.1114818824739944;0.04503114893522929;0.0020343806085147314;142.0;0.10881900333958895;0.04299337467196093;0.0018544277753804097;148.0;0.10764398826825229;0.04160279529593587;0.001736412414537932;152.0;0.10684281810165908;0.008857113154070173;7.870457480445262e-05;156.0;0.06622944813002107;0.0402133092940781;0.0016223551900696154;156.0;0.10441724555103936;0.041311746237367;0.0017122243305245448;156.0;0.10461880155175149;0.045101298329809726;0.0020399855873729075;154.0;0.10794167060798397;0.048988931579285265;0.0024068109425427445;152.0;0.11091422820240644;0.053557890672118906;0.002876554917987263;151.0;0.11290317094215929;0.05993221638444304;0.003600930273726273;152.0;0.11820534029312697;0.07216962100859249;0.005221879619170493;151.0;0.1273920086279936;0.03680104662180244;0.0013584418195770607;161.0;0.10193228270040294;0.08833572840640154;0.007819844142212746;154.0;0.1498520898908375;0.08891721992367355;0.007922120975076736;159.0;0.14948286339878505;0.08591421276585028;0.007396985323592188;155.0;0.1476940364250566;0.07759108692781333;0.006035762498080171;153.0;0.14369948400807228;0.07096010936460996;0.005047824179297769;153.0;0.1394864046553681;0.06785230678401202;0.004615454730256354;154.0;0.13866606887190147;0.06507563155188964;0.004246214954396197;159.0;0.1356018097700894;0.0072623729352127445;5.2871795055782856e-05;151.0;0.06361822025530153;0.0578409165146192;0.0033533526649745056;155.0;0.13330186389151136;0.058770971743997924;0.0034616164751790526;151.0;0.13463402779055655;0.062475467413427674;0.0039129400966255;146.0;0.1383631146154843;0.0677924949741718;0.004607915209992966;148.0;0.1413599338038898;0.07636017226583916;0.005846179848075146;150.0;0.14820593492009443;0.09021641894080301;0.008163360531883218;152.0;0.15939079539625803;0.09643731386172048;0.009329786027529109;154.0;0.1609078434774828;0.055568005001630255;0.003096015967670958;154.0;0.12936821654555022
0.047712549243073776;0.0022838167073458153;144.0;0.1188075828519866;12.0;0.04604488337085039;0.0021271087905331974;147.0;0.11604393247926884;0.04338719457728914;0.0018886470418392834;145.0;0.11333447042699536;0.0403594148858999;0.0016342104425122242;137.0;0.11052187890409394;0.0374403088947231;0.0014062891761326896;144.0;0.10796319442007878;0.035646250421526596;0.0012748004880416932;148.0;0.10749655001562682;0.034988612102022414;0.001228038308340206;148.0;0.10729170801908039;0.008816480321312575;7.79686187173374e-05;152.0;0.06563192885477223;0.03209419030509347;0.0010331598621868283;153.0;0.10280466785013001;0.033686589628459815;0.0011378614842467757;152.0;0.10465618553941666;0.03656405279140121;0.0013399636330957301;146.0;0.10823237693183234;0.03962863443005623;0.0015733303463437535;144.0;0.11092936614627663;0.041635211703622374;0.001736780385791375;145.0;0.11098126525339264;0.04646439421214448;0.0021631169680081165;144.0;0.11595408457941185;0.058287800395650964;0.0034026784921283655;141.0;0.1269789899227895;0.032181716110751234;0.0010389027772845876;161.0;0.10210154515052125;0.054815502360968035;0.003000828363755049;135.0;0.12594545859576128;0.050850968097909774;0.0025797300602797267;143.0;0.12205677595938784;0.049470417210873294;0.002442347962134489;144.0;0.12056163213249056;0.04750268190054361;0.0022524388733386335;146.0;0.11991309128998992;0.0449369728684882;0.0020165433674089817;145.0;0.11787477093226137;0.043830023112199995;0.0019199852360457267;142.0;0.1182725123491001;0.04239037710124865;0.0017956352858921794;142.0;0.11536680439801208;0.007903455119793422;6.266973695597444e-05;159.0;0.06742119797339907;0.03984969228199231;0.0015886802450689966;142.0;0.11376659794784266;0.04050603495714128;0.0016399891221825173;145.0;0.11541632533416996;0.041425965063086566;0.0017164359861380034;138.0;0.1175476093456765;0.04368309547585345;0.0019107311012913;144.0;0.11833445430568114;0.049404639983599924;0.0024448737275517534;149.0;0.12601121494235012;0.06034687840668195;0.003648993434673331;151.0;0.14136015128382082;0.062178654648173876;0.003874310389566734;158.0;0.1417256894785571;0.03773756085196115;0.0014250666582373184;144.0;0.11041452840062718
0.05070597867997127;0.0025792824162181294;152.0;0.12021794604787184;12.0;0.04861989686461307;0.002371451137949937;155.0;0.11868890290836955;0.04582592305040763;0.002106612271115066;157.0;0.11565480116522558;0.042411597858784615;0.001804477045371939;155.0;0.11232493248733268;0.0394759589421755;0.0015631834539392077;153.0;0.10994435204050472;0.03788028240978749;0.0014394895297050964;151.0;0.10840241571256022;0.03754217624662724;0.001413959301921636;153.0;0.10811853672546878;0.008828110394750913;7.817691595066693e-05;152.0;0.06866305600014319;0.03251950589399563;0.0010603427395511269;157.0;0.10434625524516218;0.032486245049666566;0.0010583700248673598;157.0;0.10487585102831114;0.03376757188762274;0.001143782761536891;156.0;0.10800642606280202;0.03540294825958702;0.0012570743001617567;156.0;0.11029512947020302;0.03588117982815742;0.0012911081344026175;157.0;0.11075087616173028;0.038801567861615094;0.0015093199752684602;161.0;0.11405942278995863;0.04594315163620348;0.002115820596716349;162.0;0.12095096456330989;0.034165501227881784;0.0011707196509583516;149.0;0.10450972749585173;0.05690552619332532;0.0032487972918932113;152.0;0.13108649960282606;0.05195835237661137;0.002708509407355143;153.0;0.12676601021689926;0.05036287400449424;0.0025447136784636517;155.0;0.12622497589678036;0.04799451109278452;0.0023109702934413423;159.0;0.12461067983023531;0.046867062523108835;0.002203393386730136;158.0;0.12340831815796394;0.044199841490586936;0.0019596271458722486;152.0;0.12115319546527524;0.0426308598706752;0.001822950469128468;145.0;0.1172370023698768;0.008314437644697454;6.935582997021372e-05;155.0;0.06796309984094805;0.04168881719525335;0.0017436351964876618;154.0;0.11564919057272552;0.04179453957772952;0.0017524877344872083;159.0;0.1166824025541674;0.043009819877824776;0.0018559007013440715;151.0;0.11952440941909788;0.04435695632281425;0.0019739743431692923;157.0;0.11970511234473499;0.0491420799366244;0.0024228472449551825;160.0;0.1260062720000318;0.05760041175836294;0.003328309404423551;157.0;0.13718953500066447;0.06096256337532432;0.003727840729826222;160.0;0.13954027885533307;0.039791047246073595;0.0015883398290979373;157.0;0.11285326459806463
0.039913347741498975;0.0015979609884044415;158.0;0.10848110994520879;12.0;0.03788677666639874;0.0014399752734783513;160.0;0.10655444835642106;0.03593651955842877;0.00129530756263377;161.0;0.10442326402112152;0.033148459628167745;0.0011022080539376928;161.0;0.10181127817762821;0.030744880427201273;0.0009478410265770856;154.0;0.09954486016894257;0.02948799709474166;0.0008721154580086997;161.0;0.09789658781682291;0.028883202884304526;0.0008365636793272686;160.0;0.09774025915672518;0.008122465283668303;6.618147975972829e-05;154.0;0.06768508821912109;0.026601718199502127;0.0007089485625852585;169.0;0.09658922288644708;0.02635651752085885;0.0006958878315229905;164.0;0.09590657683362284;0.027235750572817383;0.0007433857704770103;163.0;0.09818149594751822;0.029111202164706286;0.0008491297027637171;163.0;0.09990127783261248;0.030944818966988537;0.0009594980484520098;153.0;0.10173577001331319;0.03510163809480862;0.0012343100138174818;155.0;0.10637673630629335;0.042188094683422155;0.0017822220151321787;156.0;0.11644105254724194;0.026361359740914584;0.0006964589537701223;158.0;0.09586851208775062;0.06010555045688367;0.003621684680978591;156.0;0.13347363743821483;0.05430204394094823;0.0029568205090550943;153.0;0.1285617889974744;0.05235129668208594;0.002748930908446599;144.0;0.12734005836195367;0.0499238044612569;0.002500389427404566;147.0;0.12582871965200135;0.047769492832296596;0.0022890567782569084;147.0;0.12472347791268505;0.045220310667655556;0.0020511952924563838;146.0;0.12311963885489077;0.044413218168015994;0.001978711391647479;144.0;0.12090140679159862;0.007399226041531657;5.491486887300083e-05;150.0;0.06648373247821197;0.044017026282607674;0.0019435563852499792;154.0;0.11737501321904523;0.04406866801293561;0.001947951673376463;154.0;0.11740204661844389;0.04539759856599107;0.0020669666866369677;163.0;0.12008217466145363;0.04744962313938571;0.0022585359169260953;164.0;0.11999786684978425;0.05291845153914442;0.0028091871098649837;162.0;0.12486617729836731;0.06330070741449184;0.004019602886930535;156.0;0.13517589510314143;0.0661254782319624;0.004386368432504337;156.0;0.13889673511404618;0.04250802725311728;0.00181256803413141;154.0;0.11423047779805971
0.03100817160984049;0.0009630122731288899;149.0;0.10125221630640133;12.0;0.03042973482271188;0.0009267513041612441;154.0;0.09954035345237619;0.028744136358202384;0.000826748878353221;156.0;0.09747589655300942;0.027135295733779968;0.000736868926828266;155.0;0.09618761995640411;0.025430837197817538;0.0006473429267146707;153.0;0.09477270292050938;0.024217187261464334;0.0005872799437810925;160.0;0.09410308302989061;0.02352847488017088;0.0005547514369901021;159.0;0.09444241803397552;0.008760101522179186;7.699009746286033e-05;149.0;0.07017366515128481;0.024059784791988947;0.0005789957215027995;159.0;0.09524041470194416;0.02346940306884258;0.0005512329131482438;157.0;0.09566000231421343;0.02461110516804608;0.0006064621308921538;152.0;0.09769326835289673;0.02582549356340697;0.0006678023960746197;149.0;0.09828591618313819;0.027765276579023744;0.0007719473908620909;137.0;0.10034065637336168;0.03194651685504905;0.001022452872869239;137.0;0.10600457841420032;0.03955560319413011;0.0015678670456830564;133.0;0.11544826927762332;0.02466349851640129;0.0006089471860802928;158.0;0.0946278372465738;0.05524217931606092;0.0030590675914419076;139.0;0.12775871999684787;0.0509310463807127;0.0025990996386503836;145.0;0.12486365543255648;0.049322378206451425;0.0024371961122238595;136.0;0.12232849610322168;0.046019126049600005;0.0021215786839099107;141.0;0.11966842565849156;0.04209208620384218;0.0017742859534575933;147.0;0.1178420060003762;0.039250261437722776;0.001542504623584474;144.0;0.11662673723097983;0.03862304029793376;0.0014937700352574607;147.0;0.11609661641968122;0.00767331259667971;5.906658824833802e-05;159.0;0.06876192987309115;0.03736450129204515;0.001398846308811376;151.0;0.11335534862299211;0.0375212177661343;0.0014104294710740547;152.0;0.11510865269421501;0.03915304996189555;0.001536657213046872;152.0;0.11798588829255403;0.04288863949295804;0.0018440839281934252;154.0;0.11960293644375938;0.04947148977052233;0.002454591211373116;159.0;0.12561493788457248;0.06234099330865692;0.0038984069033518036;156.0;0.14045814984503882;0.0644097904467666;0.00416071888519809;159.0;0.1432287837317225;0.03582338093852159;0.0012854300525298324;149.0;0.11007463289070066
0.02993136797467121;0.0008987945692129071;153.0;0.09711822231466603;12.0;0.030023788880021263;0.0009043737310522471;155.0;0.09652567547423584;0.028833793253049595;0.0008341046155712019;160.0;0.0951868901685231;0.02740701354588694;0.000753597104747455;162.0;0.09444682239351043;0.02599162820805193;0.0006777292614228062;162.0;0.0940925623610008;0.024477409065112168;0.0006010751067479186;160.0;0.09357462886189898;0.023811551070810295;0.0005688068962283692;160.0;0.09400392221916655;0.009049579062776744;8.215908962180492e-05;150.0;0.07134614132580043;0.023662521640408524;0.000561439930616943;161.0;0.09451529848527587;0.022760798992896902;0.0005195864400928154;164.0;0.09517767056764444;0.023764835350072226;0.0005663482724419391;158.0;0.09672084800957381;0.025455054808161428;0.000649684941417232;156.0;0.09952399938271231;0.028167118974055008;0.0007953757883294752;151.0;0.10384279018071846;0.03266085427528663;0.0010694169770483735;156.0;0.11105050744737452;0.040431422890702784;0.0016389501847759549;151.0;0.11974092194332665;0.024687006303075236;0.0006112704928677627;162.0;0.09408426111769094;0.05322341187747088;0.002841732811902348;135.0;0.12598618755321372;0.05069483437543988;0.0025783687583197435;148.0;0.12470113441553034;0.04871056568276878;0.002380447068757202;144.0;0.12240397403744833;0.044919551090596956;0.0020242575294641837;142.0;0.12013667147107296;0.04271957725262505;0.0018308731447109312;147.0;0.11934762580754485;0.039106968332329704;0.0015342157601765816;144.0;0.11702359220075984;0.03709626003283156;0.0013805815401402564;150.0;0.11534396622681681;0.00829995168863785;6.905943597435234e-05;166.0;0.0707141062210585;0.035632593501293726;0.0012738287202204502;154.0;0.11372178321608717;0.03580047126911145;0.001285751174622021;150.0;0.11387431664138505;0.03778526223304492;0.0014321662233007266;137.0;0.11641560041505622;0.04231872059414084;0.0017965495709041583;145.0;0.11945428175872236;0.04805697680538583;0.002316966019312052;146.0;0.12369510483093384;0.05799271722999025;0.0033740653480786196;152.0;0.13526616338266845;0.05983787853606064;0.003592283373209889;153.0;0.13775576134894357;0.03413861132878467;0.0011692484656577046;154.0;0.11114875609408047
0.02894643797463518;0.0008384453142680362;159.0;0.09942145868286066;12.0;0.02808092054085755;0.0007895487955104687;159.0;0.0980948674992807;0.02676073221918693;0.0007170471728862508;160.0;0.09555427811601153;0.025498710402071075;0.0006513825766706056;157.0;0.0945001714762902;0.024730801716748605;0.0006128019205156932;156.0;0.0939440511764541;0.024365940142009223;0.0005948619598628754;156.0;0.0938513031440074;0.02482618338316077;0.0006177817142081623;154.0;0.0943603176624116;0.008491532980530422;7.23410085402418e-05;157.0;0.06891223522644832;0.026976208995185137;0.0007289306933588623;169.0;0.09667618210456169;0.02679487798130516;0.0007189902602438441;164.0;0.09718309616240516;0.02763433031175679;0.0007651271282474105;160.0;0.09783128027463885;0.030732620711271186;0.0009463938644149057;158.0;0.10188901208551288;0.03471532338391553;0.0012075861371880826;152.0;0.10703448855973283;0.04037838761776855;0.0016344941420852808;154.0;0.11392952705077285;0.04726409341358306;0.00224008680825127;152.0;0.12224153107669622;0.02699880497714958;0.0007304669876242724;164.0;0.09536962082265243;0.05378323887290686;0.0028979244269526985;142.0;0.1271696569952189;0.04973062739236612;0.0024764943090195583;144.0;0.12354013121471286;0.04694301138081573;0.0022065243996782073;141.0;0.12182949308620684;0.044835005710444874;0.002013235204764982;137.0;0.12046894218957849;0.04423644985264877;0.0019604969477041707;138.0;0.12049383417658319;0.043005502259858545;0.001853044887374245;141.0;0.12024842795679444;0.04217170329254321;0.0017828620749668531;145.0;0.11975158390169185;0.00747935728285092;5.612332723501976e-05;158.0;0.06696213235451996;0.039467491599263056;0.0015617250550033297;152.0;0.11717633235382707;0.04019461405566831;0.0016191843318053357;148.0;0.11734199287678211;0.04274805895530192;0.0018312817268586199;141.0;0.11998603315396018;0.046751788545307524;0.0021908607514825873;145.0;0.12367204402016453;0.054219888370861856;0.0029466714436949155;142.0;0.13078008430441426;0.06648151066970441;0.004430771842534897;140.0;0.14266246960369586;0.0669508608541775;0.004491520992595804;140.0;0.1434815644643635;0.03706051630799926;0.0013773076258820954;151.0;0.11494205651450226
0.06956755135489828;0.004851946654660018;146.0;0.14156072385945498;12.0;0.07049120659620328;0.004981867119123428;146.0;0.1410006923609761;0.07560912242029487;0.005732951967633372;144.0;0.14252920700202104;0.06878843657316484;0.004744455801148842;147.0;0.13950526198098648;0.06273293053322891;0.0039463323044360114;154.0;0.13758053115727278;0.059561506797208175;0.0035574545404618717;155.0;0.13660922864204908;0.058302087496657315;0.0034085691355652337;154.0;0.13645456486367605;0.009110493106644059;8.32591516043918e-05;159.0;0.07112225209271823;0.059721403136342985;0.003576773908215609;164.0;0.13762236377875808;0.06253077539373775;0.003921094378651772;161.0;0.13936093054089832;0.06721935809136355;0.00453056847056817;160.0;0.14341674810001698;0.07565392649913254;0.005741117547775009;154.0;0.1503163976446066;0.08477697545676409;0.007209657324497536;150.0;0.156489864962253;0.09774886333577312;0.009584474340405167;152.0;0.16760628153983417;0.11342188575456003;0.012903183172230067;148.0;0.18107864078052968;0.05628787847888149;0.003177805583960418;161.0;0.13418537553841556;0.12746244863556255;0.01629962459019472;144.0;0.17874947077884593;0.12376206438783927;0.015367089024926154;148.0;0.17603620489357608;0.11559291833447288;0.013405394581196928;146.0;0.17384917035574357;0.10418561116980267;0.01089015169953775;148.0;0.17027118136647482;0.0967354709288682;0.009388060027553331;148.0;0.16849682899596394;0.09226381060379309;0.008539997252405127;152.0;0.1673928041072723;0.08906158395606568;0.007956830600651943;149.0;0.1663115666067387;0.007179498237427242;5.1711085974547746e-05;158.0;0.06418502883699582;0.08857696205619696;0.00787074460688604;155.0;0.16194416143155552;0.09312954278280827;0.008701148003055607;158.0;0.16371408384926187;0.10166156745442441;0.010368830662809218;162.0;0.16844991353261918;0.12178730761504745;0.014878921761291596;158.0;0.17642057515521228;0.1450915318680384;0.021117526604387652;157.0;0.1891539060338236;0.1830652347968219;0.03361531808937959;149.0;0.20981188322264824;0.19572992792661315;0.03842135903540198;143.0;0.2178311208117825;0.0783860394864748;0.006164129132466696;149.0;0.1589840683955986
0.08009635078940652;0.00643628335245056;154.0;0.15500065157170126;12.0;0.08135613355548997;0.006640453309830224;146.0;0.15376887007520904;0.08684316199260679;0.007566376202437944;137.0;0.15593923187717273;0.0800595831700981;0.006430483188349692;144.0;0.15250577344735444;0.07331379082356528;0.00539247595838359;155.0;0.14998481707086495;0.06928248149129997;0.004815748527507238;155.0;0.1487658842611132;0.06684079362009249;0.004482286436764051;158.0;0.1476003698493857;0.009842388232671312;9.717229525475645e-05;155.0;0.06919940742513334;0.0655213406479713;0.004306864292083041;164.0;0.1460925555770655;0.06853503282960449;0.004711891379897866;169.0;0.14764724948992233;0.07320047773430712;0.005375332078544639;167.0;0.15199225902053906;0.08099292573471553;0.0065804014492793035;165.0;0.1585325186216574;0.08916159933095866;0.007974836380038552;165.0;0.163610368094136;0.10078216789887352;0.0101896542447435;174.0;0.1731636454435648;0.11507184258926634;0.01328312315471164;167.0;0.1853871570736353;0.06266931361315234;0.003940132796031037;163.0;0.14343336513017285;0.1399891038004356;0.019650837591467817;150.0;0.18449103434557013;0.13603221071504143;0.018552407128102653;153.0;0.18155747289950544;0.12635863853800136;0.016006125805722755;151.0;0.1772787006486958;0.11309460963292886;0.012823209273212555;153.0;0.17251777734086035;0.10461891543121739;0.010973959288548982;155.0;0.17007107317120385;0.09890525801564161;0.009810472393256693;158.0;0.16804204579272738;0.09486866969847588;0.00902776121822321;155.0;0.16595328237116727;0.006945235195566118;4.837939667189812e-05;155.0;0.06179174746379353;0.09551428545041181;0.00915174798015092;158.0;0.16276194006039038;0.09999897573003431;0.010031991378533696;164.0;0.16396853490223673;0.1075153873720368;0.011596458662058683;169.0;0.16820505276153724;0.12772171206250285;0.016364271170662248;161.0;0.17590641729630507;0.15103613101049557;0.022884904955392513;157.0;0.18748084967856618;0.18945366343430511;0.036008434345620566;153.0;0.20643854800881203;0.2045999951919458;0.04199701540243375;155.0;0.2177186539802841;0.0856651640432287;0.007361636697640816;153.0;0.15953444785118998
0.056118959867236085;0.003156658962287955;152.0;0.12725732658122263;12.0;0.0555537775570723;0.003094754544095032;148.0;0.12503148432325836;0.056574750423547676;0.0032105490729097386;141.0;0.12484863165041994;0.053708923361292724;0.002893664634928673;145.0;0.12228305016671549;0.04954979303086741;0.0024624818095326045;144.0;0.11929085724123113;0.046920377706600444;0.0022078701372742907;142.0;0.11833731744623681;0.045307601943723116;0.002058445291713973;141.0;0.11744219655568298;0.011056338792092396;0.00012264299490783427;158.0;0.06962935012243447;0.045236058664072036;0.0020525926624747203;147.0;0.1195731121228605;0.04859368227975987;0.002368732920519948;143.0;0.12079212722973856;0.04779401479604014;0.0022914103094168335;147.0;0.12146063994875118;0.048259267881616594;0.0023364934889877503;147.0;0.12243346519715777;0.04982545180844298;0.002490654255733636;141.0;0.12369434261796845;0.052513320659922445;0.002766567765386255;145.0;0.12712936020059637;0.05589856833439775;0.003134489140698869;142.0;0.13110588875433116;0.04311431063699847;0.0018648684442742027;153.0;0.11763267809555446;0.08749765174690985;0.007677262114554144;156.0;0.14195480982330225;0.08596763340041999;0.007412179413470154;152.0;0.14004401948384065;0.08018179167723673;0.006448791848728504;152.0;0.13720398144783139;0.07216910271407058;0.005224832765665181;154.0;0.13292007883432097;0.06719705304215626;0.004530206544767121;159.0;0.13058720711667998;0.06351100040186125;0.004046846793761245;157.0;0.12915589386914983;0.06146691248673794;0.0037902705047812174;156.0;0.1275428172526723;0.007253880129639515;5.2793539388638396e-05;152.0;0.06287341817682536;0.05785147214865987;0.0033577280473030004;152.0;0.12300901945196159;0.05847528663244301;0.0034304920450060005;158.0;0.12313479028260725;0.05949652729978817;0.003551386510097568;162.0;0.1241504830474688;0.06599430128339688;0.004369010400065138;157.0;0.12736472803475538;0.07674359647474635;0.005908084568313973;147.0;0.13556439998361985;0.09481272157114216;0.009016719802186688;141.0;0.14783944575195263;0.10124021898819485;0.010277998189187204;150.0;0.15283114557226868;0.05494992278275471;0.0030293271870892513;154.0;0.12005111725245264
0.037958279414721754;0.0014436695927411455;135.0;0.10913142512239796;12.0;0.03688329983330693;0.0013641147583556444;147.0;0.10855028112107139;0.03758475149774046;0.0014169619467769533;154.0;0.10824894728055849;0.03546771363198528;0.001261756153756113;158.0;0.10743634413570217;0.032438492271089726;0.0010556212578358413;154.0;0.10526915104184961;0.030736745994588976;0.0009478125646830006;149.0;0.10459513116850844;0.030827854048618878;0.0009534407107925427;147.0;0.10479138934963045;0.010370419904078302;0.00010780239808364387;157.0;0.0679268569620083;0.03602157779195309;0.00130150443870016;153.0;0.10924586135741648;0.03970778650996361;0.001580911653735344;146.0;0.11101487201770978;0.03864719814962055;0.0014975226129880436;148.0;0.11125058454514644;0.03848241871859849;0.001484832539000845;141.0;0.11118067639966192;0.040137967081575604;0.001614236376727463;137.0;0.11180497543985295;0.04431546023174937;0.0019677303930227385;130.0;0.11694694894003031;0.05004989943312291;0.0025102134326126474;133.0;0.12379402691840291;0.03179926754029568;0.0010143735297511568;161.0;0.10623367521485674;0.06652412361283064;0.004425357897350593;165.0;0.13495820078507498;0.06624907103497137;0.004387840041206614;162.0;0.13335203555124195;0.06359205076194686;0.004042215543837362;160.0;0.13195280454289537;0.058173621784640014;0.0033838626964010736;168.0;0.12908753941284315;0.0538331153199106;0.002897447446875958;170.0;0.12625779073433;0.05003110002438607;0.0025057177143584706;168.0;0.12448990577917374;0.04867383264247206;0.0023715715225163243;168.0;0.12342341127518754;0.0076552150479959466;5.8762860765166186e-05;153.0;0.0641642987950276;0.04186015471536178;0.0017547754379145899;161.0;0.11683456935277996;0.041763647885151835;0.001747562202486297;155.0;0.1164717236690352;0.04351428635652523;0.001897144671294991;161.0;0.11712042966010591;0.047870315536923926;0.002295840533018788;160.0;0.12011626731860567;0.05682629242346969;0.0032362118261506875;158.0;0.12855468957221278;0.07231233923381887;0.005242609773887004;151.0;0.14395906642991854;0.07343195357450472;0.005407590327240408;150.0;0.14600726478728715;0.040915092834012776;0.001675418057429999;167.0;0.11547026737078961
0.03782748771836865;0.0014353166013864633;143.0;0.11133001024481771;12.0;0.03671663206670351;0.0013525071440904587;150.0;0.11061466492176136;0.03581376224701836;0.0012868111774154895;158.0;0.10934711141272055;0.03369908371800942;0.0011393351013473073;162.0;0.1084361048366424;0.031649645530263434;0.0010049618907031228;164.0;0.106845509268891;0.030239060270283596;0.0009173383346083254;160.0;0.10575302424807102;0.029442342784744648;0.0008696807095531533;163.0;0.1055186860939542;0.008543305487606071;7.320951942037201e-05;150.0;0.06413264377190529;0.03153412591898748;0.000997350400899517;167.0;0.1101998099499255;0.03219922920813899;0.0010396941433005555;169.0;0.11046127319697371;0.032966907356504135;0.0010895971046002207;165.0;0.10953061090825997;0.03450852407620664;0.0011938512956545812;160.0;0.1104391722970704;0.03680286350894283;0.0013577634470645329;159.0;0.11203577485471028;0.041063278210214896;0.0016906747206912249;153.0;0.11594443598340988;0.04629422477162801;0.0021490868342276016;161.0;0.121839620874194;0.029522042136104293;0.000873927316933455;169.0;0.1081455536389345;0.049202167172900504;0.0024281030525071115;153.0;0.12225651485350966;0.04748755775510777;0.002262094187358673;152.0;0.11939899902566298;0.04589622152326493;0.0021132306862803826;148.0;0.11705927746826117;0.04268976601084058;0.0018282005660987938;155.0;0.1153210573738381;0.04052476130710357;0.0016474697916202732;156.0;0.1128407106660781;0.038318796941439956;0.0014729450653966723;154.0;0.11258809374500352;0.03854399820418088;0.0014901228548224034;153.0;0.11124242615426527;0.006906768861194739;4.781623586640805e-05;163.0;0.06427761601397354;0.03728353958090056;0.0013942112924434807;156.0;0.1110149928352083;0.03722522757796857;0.0013901970607790401;151.0;0.1118734568544707;0.03963748672862618;0.0015762710536311123;151.0;0.11290212071461028;0.04329558570575747;0.0018804008072486212;153.0;0.11525064945172032;0.0498167312372257;0.0024892100474759875;158.0;0.12234886859158757;0.06266648620160585;0.0039379097581415026;159.0;0.13579280981641384;0.07317012371944608;0.00537005313187587;159.0;0.13995002273523877;0.035478278056995126;0.001262540868475908;160.0;0.10920509284551358
0.03965216864204553;0.0015767805051627266;152.0;0.11092697711823611;12.0;0.03738023165654562;0.0014014798346831516;156.0;0.109037550871404;0.03531667335714688;0.0012509989176506333;154.0;0.10800447213723455;0.032782999577567015;0.0010776710061032536;158.0;0.10591942183213875;0.030276989730353223;0.0009185613596457865;158.0;0.10314503864407665;0.029194949322251633;0.0008539826790443217;150.0;0.10206646245667772;0.028464480285383766;0.0008120559357733412;151.0;0.10226944214553903;0.009545225595404688;9.124280094858483e-05;146.0;0.06814719070695059;0.029018211024173155;0.0008442382277342683;159.0;0.10804907224025576;0.02970138041111705;0.0008846777468110614;160.0;0.10814952983954544;0.030191073312117137;0.000914110867684901;162.0;0.10768812281368227;0.031314800855930996;0.0009831022508800932;161.0;0.10844179476117459;0.03301494920480743;0.0010933085654331216;161.0;0.11147344943433148;0.036795788831293384;0.0013575919013793841;149.0;0.11702403379339213;0.041576769283724634;0.00173355857972973;149.0;0.12483133841888441;0.02699452401848023;0.0007304669868226158;153.0;0.10490943569519322;0.04921241088552442;0.0024248828695759535;144.0;0.11896943516326748;0.045837876577142805;0.002104551400352211;142.0;0.11499867407773712;0.043044882829929576;0.0018562989724991632;140.0;0.11328829942696148;0.04027267982327241;0.0016255559477722796;143.0;0.11287272593102105;0.038923994414103935;0.0015187638193433746;143.0;0.11120105787105213;0.037905616364024716;0.0014407594711183013;139.0;0.11106959576730015;0.03868096907316754;0.0015003825149558796;138.0;0.11078041909977131;0.00736810663097461;5.442539355000768e-05;169.0;0.06542435753232936;0.038157450557637654;0.00145990779281471;144.0;0.11454175997786839;0.03881627700732773;0.001511429004105887;148.0;0.11734105970203011;0.041302979042660344;0.0017113947558764437;145.0;0.11987681577962911;0.044493410110696185;0.0019860356054933067;148.0;0.12055592811999612;0.05090267476738451;0.002599352053520382;144.0;0.12615820366185745;0.06433871854646349;0.004152878423543045;147.0;0.13766738361514136;0.07757050137995061;0.0060367886861516715;158.0;0.14584661784539651;0.035766398086066055;0.0012827754272838803;146.0;0.1114707835380672
0.0346378010405671;0.0012036088884525586;151.0;0.10057170318271423;12.0;0.032128562263567646;0.0010355987069293677;152.0;0.0984758753877103;0.02999546533146608;0.0009026673847969206;150.0;0.09747753433490072;0.028077814168436476;0.0007909344569417712;153.0;0.09558739039721542;0.02645326548623922;0.0007020629915282373;154.0;0.09297665760398383;0.02638630782653941;0.0006984500130027901;146.0;0.09295969628075365;0.026891980390924268;0.0007254841989153995;149.0;0.09391344433275549;0.009302509869448432;8.675479431405929e-05;153.0;0.06797981627668362;0.02586815113635765;0.0006712710638070063;158.0;0.09574403561564232;0.026421414201984364;0.0007002636992193465;163.0;0.09624852509553102;0.027590186011933242;0.0007635808718097583;162.0;0.09830813577223277;0.02896970302922481;0.0008419748309264152;159.0;0.09893751709727933;0.03002965344369299;0.0009046375511284815;159.0;0.1016839913323981;0.034258130426163914;0.0011774681884680121;145.0;0.10864111511380835;0.040921235459082134;0.0016800293202471248;143.0;0.1205809525994364;0.02566720487049771;0.0006609501527891333;149.0;0.09376880949290864;0.054198411880639515;0.002946976457659893;160.0;0.12119429513372601;0.05033942982010937;0.00254202733746279;160.0;0.11624855698687242;0.04780072449562865;0.002292174572657156;158.0;0.1147313291109743;0.04601426735924161;0.002124020741384168;158.0;0.11441553139454998;0.044507344269904894;0.0019871499382807206;156.0;0.11328467280411415;0.04332818428949532;0.0018832888848098975;156.0;0.11225208729838206;0.04276101521697291;0.0018343226406887108;152.0;0.11259359791667443;0.007609517306619409;5.8042861893698845e-05;161.0;0.06567521634886005;0.03804622332760056;0.0014522505592648228;152.0;0.11404318423562128;0.03874472754318783;0.0015060272139202097;149.0;0.11733479533659273;0.04055042015765939;0.0016496951797708406;149.0;0.12023744751433807;0.04164900331033652;0.0017402048342485708;148.0;0.12117499681775833;0.046198001952391654;0.002140945738468761;150.0;0.12608907866139676;0.05802887458350845;0.003377649522970029;150.0;0.1382155752794347;0.06383253250866801;0.004086964598278186;154.0;0.14590059636851768;0.03711833869858679;0.0013822614493800961;152.0;0.11112484792798752
0.033434748581732315;0.0011207109318162854;145.0;0.10198197538209873;12.0;0.032274372931572884;0.001044494629188867;149.0;0.10036598278138406;0.03097044717156314;0.0009617096619166083;157.0;0.0992108683817217;0.029482275292266033;0.0008714595117449649;158.0;0.09739400330658023;0.02827629299538158;0.0008014907948615444;159.0;0.09662050808458238;0.0279558907739378;0.0007833615205978472;154.0;0.09632991571888959;0.028266815370584255;0.000801078214114505;161.0;0.09731608194460392;0.008878974995292657;7.902486321887493e-05;156.0;0.06657631722344093;0.026328150745230247;0.0006952682752942846;162.0;0.09741200188707058;0.025963065162475665;0.0006758909381020608;167.0;0.09695789759829555;0.026735396511997345;0.0007168287488023839;164.0;0.09864569119456991;0.027830836807386433;0.0007766534294384279;162.0;0.09920848977738936;0.029432324580696754;0.0008687349886910337;161.0;0.10131063995117412;0.032763574236962835;0.0010766804979583057;158.0;0.10461608876321188;0.03838081437919771;0.0014776390515523845;160.0;0.11346259292490624;0.02751524078760982;0.0007594226477332315;159.0;0.09795733192080666;0.048291650341832484;0.0023397012423149142;158.0;0.1178012522610443;0.0457632740108684;0.0021009640444425003;164.0;0.1133730184639043;0.04420333668778203;0.0019602519817182454;161.0;0.11135654516117117;0.04311014597577351;0.001864538832809482;163.0;0.11085776854187918;0.042206643696131564;0.0017872148676013654;161.0;0.1105122078219312;0.04178441385958648;0.0017516427957795086;165.0;0.11084194833856134;0.041185498056925174;0.0017017571187752665;161.0;0.11110166949132828;0.007965377826008417;6.362704387715239e-05;153.0;0.06609287905882212;0.03649771046119521;0.0013363929595855085;155.0;0.10982346189110992;0.03680175506730749;0.0013587945889308025;152.0;0.11108965412550122;0.038488495102969644;0.0014861919092279314;156.0;0.1126019795453618;0.04253224688202411;0.0018148600572626611;149.0;0.11522806872493976;0.05015735501129643;0.002523876089857438;153.0;0.12225559465918624;0.0628456376619436;0.00396243979554429;157.0;0.13651984639111758;0.06312676080271207;0.003997853499727281;157.0;0.14172123985108573;0.03517222126701539;0.0012410965565329368;154.0;0.10712751351042366
0.029957478224016662;0.0008993851594994238;146.0;0.10270320348825;12.0;0.029495227974982427;0.0008719454004174898;157.0;0.10056445646821399;0.02881989533221866;0.0008327424536008502;160.0;0.09862893891618962;0.028013299744782887;0.000786738699865776;161.0;0.09764397095987865;0.02740391368054877;0.0007529146807101289;155.0;0.09740774887968769;0.027074439366540894;0.000734957009550343;154.0;0.09753762467353648;0.027239704927686507;0.000744231690299638;165.0;0.0976490355604042;0.009721473000731538;9.480722083453146e-05;158.0;0.06969295171183482;0.026112735367736176;0.0006836143124289521;167.0;0.09847647413085522;0.025774547783466932;0.0006658316998217266;160.0;0.09780282398089436;0.027078496982208135;0.0007346354988549238;156.0;0.0999147075149336;0.02814114990267309;0.0007936401986180334;155.0;0.10076967483291964;0.030612247072528853;0.0009386740967045729;154.0;0.10340637088712529;0.03463265439194683;0.0012015358442794594;153.0;0.10718746573624124;0.0414116123322752;0.0017181298139181305;154.0;0.11551080214707325;0.02617895872179211;0.0006874368844597469;169.0;0.09864473377338236;0.038692165073711884;0.0015007107870626062;152.0;0.1123310485237289;0.03773721234373005;0.001427770706267744;162.0;0.10999900071729816;0.03671939669980472;0.0013521616784170148;163.0;0.10831254375928398;0.034919377413752915;0.0012226384193434322;163.0;0.10737111279199793;0.0340002352064057;0.001158999491875465;159.0;0.10703048105051086;0.033756132092905664;0.0011422576748765655;160.0;0.10825177577015305;0.03343235042590203;0.0011203229901587896;162.0;0.10785330897844676;0.007949423516389758;6.33975917300696e-05;156.0;0.06474114414307174;0.030401486163956565;0.0009266676523617691;156.0;0.10560262454831394;0.031218446829519055;0.0009772355731122396;156.0;0.10633819299436666;0.032900769284874135;0.001085713917161925;156.0;0.10822104836163961;0.03677093246258312;0.00135629261637427;150.0;0.10929427548511673;0.043867731864681896;0.001930699441338019;148.0;0.11563562532148229;0.05406249395518931;0.002932298467997404;151.0;0.12811417421774446;0.05412007876974945;0.0029385802198516864;148.0;0.13144278457040443;0.02868113057366368;0.0008249027567091903;157.0;0.10347048047850606
0.029114439103617454;0.0008499269631050755;154.0;0.09917508869409751;12.0;0.02770002346807514;0.0007694049045161072;157.0;0.09641525265262264;0.02614636845677507;0.0006855672902376979;152.0;0.09300699914435913;0.0246790955051829;0.0006109386388678713;155.0;0.09213336178653149;0.023695259561327085;0.0005630503378670663;148.0;0.09136746159067417;0.02318707921257213;0.000539204303794788;148.0;0.09139334787114893;0.023146974522639294;0.0005374538859567598;150.0;0.09090248399955525;0.008901934543560563;7.947993392095305e-05;161.0;0.06756614576562646;0.024299088723970973;0.0005920961380686994;158.0;0.09416694185070086;0.02422321720459368;0.0005882599601710356;152.0;0.09275502903369405;0.025364385891780264;0.0006451871039422507;155.0;0.09482537194674606;0.027509411107718894;0.0007588068411074991;150.0;0.0968425946544096;0.03035116798682783;0.0009233234399302595;145.0;0.09998592281802951;0.035436336657646006;0.001259055968656188;144.0;0.10724033427952404;0.043749028857417806;0.0019191186147000947;143.0;0.11804421655268375;0.024190607616779217;0.0005866726569563279;164.0;0.093192692277534;0.03959065507281004;0.0015682609471187076;157.0;0.11688064832843711;0.03680735303051039;0.0013571294532020183;164.0;0.11343610966176063;0.03498793341449427;0.0012264164327424032;167.0;0.11090744929158851;0.03285926791122603;0.001082196989078886;162.0;0.11011009771867145;0.0315732627758126;0.0009993793288589198;161.0;0.10933367044941582;0.031180592362561547;0.0009747364984501312;160.0;0.11003225995638771;0.030704291944837772;0.0009455795857783617;162.0;0.10932882891507782;0.007692798028029219;5.924004855028562e-05;163.0;0.06604244428427658;0.028603701791031045;0.0008203197814671025;159.0;0.10645539654686828;0.03056603523550164;0.0009362427002939693;161.0;0.10847136890684461;0.033047551008604785;0.0010937675961432748;155.0;0.11038002425308943;0.03319186342684821;0.0011038172681676847;149.0;0.1091439303213024;0.03604424066689799;0.0013016174345581708;144.0;0.11247015347095116;0.043461717216428455;0.0018941617777395799;149.0;0.12136046403301261;0.0464625064908269;0.0021651398967722146;147.0;0.12572536443175014;0.02683084129803474;0.000721753919483569;161.0;0.10362899112949282
0.04156234213169531;0.0017315607505006675;145.0;0.11330793680647369;12.0;0.04449462537018545;0.0019850068671272074;143.0;0.11405751264906455;0.05258502706944609;0.002772731595710807;143.0;0.11447957041164653;0.04935833508201418;0.0024436704662601613;151.0;0.11342651373164016;0.04575348230336369;0.0020999752595580127;150.0;0.11270758512971306;0.04399511266100048;0.0019417276232538;150.0;0.11302314416087324;0.0435894290231202;0.001906136221155222;144.0;0.11347330023812523;0.008862931643671974;7.877143787457419e-05;155.0;0.06936903922958142;0.04925893891811914;0.002434160072320061;148.0;0.11776808139564894;0.051562901021373696;0.0026671408482648105;156.0;0.11706817083058979;0.053688815556031985;0.002892067598309618;157.0;0.11617226750392139;0.05777901065379396;0.003349145226198615;157.0;0.11874346667729546;0.06149492517049294;0.0037937192518840202;152.0;0.12224903718229263;0.06905127399207352;0.004783056587210712;153.0;0.1320460152020437;0.08138473079955648;0.006645210924106808;149.0;0.1454600929677817;0.04576530863617779;0.002101164071356291;157.0;0.11584990792404486;0.10089898849899817;0.010212937785233656;159.0;0.16151564756268894;0.09586745818525436;0.00922078706433659;160.0;0.15616042962611512;0.09003046959183252;0.008132424381009315;161.0;0.1520955129413665;0.0830551934736765;0.0069210759871986376;162.0;0.15009728652646392;0.07817884444999558;0.006132237862932534;159.0;0.14768086495054908;0.074727377051638;0.005602501160868443;159.0;0.14656523793677986;0.07157437768406597;0.005139841242486769;159.0;0.14507411240461943;0.007833600080263889;6.1549234636263e-05;153.0;0.06597746469514738;0.06686477242424702;0.004485721434857906;148.0;0.14172287896658936;0.07345425700501927;0.005413355421879;157.0;0.14655727872591548;0.08322026237279632;0.006948411152402665;157.0;0.14963494989581336;0.0839654656328567;0.007073356507445946;146.0;0.14762641219950723;0.08934680050185571;0.008009028634621012;140.0;0.15161938101714384;0.10048319097428896;0.010129947792059541;147.0;0.16045879687184636;0.10530729522362572;0.011125107150841359;154.0;0.166848364259608;0.06540403566120759;0.004291858653881836;150.0;0.13862129710340937
0.10334064857154657;0.010711328797493367;156.0;0.15318721485480555;12.0;0.1019937287310701;0.010433168384905763;156.0;0.15282759561944576;0.10510089902518571;0.011077660393415593;155.0;0.1542484899376468;0.10128928558033748;0.010290269241263686;159.0;0.15308203778371676;0.09589432523471696;0.009224373742312523;159.0;0.15197414256362132;0.09086506451867851;0.00828223537270456;158.0;0.15089906171527387;0.08754602715388068;0.007688838939269712;159.0;0.149690162589815;0.010339900750008853;0.00010726302604502244;157.0;0.07430778292609977;0.08984102151591931;0.008097693296220067;153.0;0.1496164366175947;0.09326741495869591;0.008725942539017177;161.0;0.15063157873939897;0.09929944613914973;0.009891871652631445;157.0;0.1519651568859258;0.10934901564774759;0.0119940539999392;162.0;0.15644132205018363;0.11905446987225166;0.014218177547838311;160.0;0.16179305186733509;0.13324807357261728;0.01781028718893562;160.0;0.17108278738198424;0.15461899230458953;0.023978113683099725;155.0;0.1842388958372989;0.08650293157943997;0.007507055148373973;156.0;0.14808780076769953;0.12660319049484092;0.01608009741164345;144.0;0.1834638605988305;0.12112520297356788;0.01471880616504308;146.0;0.1788411220162863;0.1150500681429342;0.013279508331723438;145.0;0.17446651876913968;0.10641161165497462;0.011360436073779906;144.0;0.1704804518843865;0.10001236780111472;0.010035033372599913;140.0;0.16657608297512555;0.09496274031135263;0.009047392205433161;141.0;0.16399330169163528;0.09123956334576462;0.008351715816284017;139.0;0.16276620235074793;0.007656978694280017;5.88187876078752e-05;151.0;0.06235362784441049;0.08557751030016791;0.007347435580508928;133.0;0.1579346928791111;0.09012625392023212;0.008149203820439078;141.0;0.16289005600586046;0.10028546578332666;0.010089649464918131;144.0;0.1678182327484855;0.1029533620976566;0.010634033224855385;136.0;0.16492846109121284;0.11141240082008425;0.012453206826369365;136.0;0.16813157895451408;0.12731768902215765;0.016262493115818222;142.0;0.17714623934982782;0.13187669532013604;0.01744785109801431;147.0;0.18063841512530426;0.08322867589611317;0.006949655486523083;134.0;0.1549150766371065
0.10368209328251517;0.010782243760320644;164.0;0.152168739133976;12.0;0.1000477108971929;0.01003927527017453;158.0;0.1486740375487237;0.09815726949852725;0.009664177600716674;155.0;0.14695794499604814;0.09453075889349208;0.008964008968503506;157.0;0.14569603765668798;0.08988291203592562;0.00810476656035784;155.0;0.14490019122251896;0.08486076061322022;0.007224565889306592;154.0;0.14326953556473812;0.08129755989765584;0.006630739972536134;161.0;0.14165683292784384;0.010128982526755096;0.00010293115670964116;159.0;0.07196464633430918;0.08114071711549087;0.006605026447660696;161.0;0.1392425793900937;0.08367742340986731;0.007024606707849965;159.0;0.1396271000460438;0.08960784577668574;0.008055674161281421;165.0;0.14218065799102342;0.09943199080215612;0.009917919288415096;164.0;0.1458653399871706;0.10941749305609914;0.012010776481625567;165.0;0.15038518358274403;0.12290142115802662;0.015152468908457988;160.0;0.15816266385693956;0.1428143198804893;0.020459738788158967;162.0;0.16924331075762428;0.07972631920813425;0.006377038117809009;157.0;0.13898106025738108;0.120358371478624;0.0145331960721021;149.0;0.17600790925887477;0.11288882927917111;0.012785466176501994;145.0;0.17065522408652284;0.10701440556410208;0.011489620304826389;146.0;0.1657972695583394;0.09826575236846341;0.009687789187505636;141.0;0.16028674812973034;0.09163674455716782;0.00842480504988686;137.0;0.15618746688709564;0.08592167837216678;0.007406608940994975;139.0;0.15262830274926695;0.08177622423218392;0.006709188695343931;135.0;0.1511649228634753;0.007298616412756382;5.341780276226981e-05;160.0;0.06134863841712065;0.07448261206187026;0.00556563020847364;136.0;0.1464069861868307;0.07400764243918564;0.005494500551349864;142.0;0.1501512806256456;0.07824822024368014;0.006142041296609247;138.0;0.15501219323061893;0.08245494496693023;0.006820532076534709;134.0;0.1543356752178127;0.09160531486777908;0.008418890340792264;138.0;0.1572125606357173;0.10827002552441471;0.01176025030333182;145.0;0.1671910338625813;0.11250848544933495;0.012699377646638097;148.0;0.16866110451422406;0.07184391311805599;0.005178060751171236;139.0;0.1435621034044396
0.04530102432357872;0.0020549094333160603;149.0;0.12032993563999832;12.0;0.04330843610635844;0.0018761491938953873;143.0;0.11736385599850202;0.04145761847060641;0.00171869244284034;146.0;0.11478828108124735;0.03868395694316769;0.0014980049702179045;154.0;0.11296919556137243;0.03666958179132043;0.0013466634813809107;154.0;0.11246317263899668;0.03513185631952859;0.001236345302402266;154.0;0.11249403463950317;0.03462189019676572;0.0012010728130009835;161.0;0.11218565180032504;0.00976818321955031;9.573081901314183e-05;165.0;0.07125228091716984;0.03467196067286399;0.0012042172190634057;160.0;0.10829615838410386;0.03461867442061057;0.0011996515841723881;158.0;0.10776046387347356;0.03570301526781986;0.001275963614471946;167.0;0.10779159488709565;0.038230001158829456;0.001462991474149852;171.0;0.1081280865065548;0.04214622610177092;0.0017757219753507852;176.0;0.11012200641508213;0.048508232891240004;0.0023521041962907556;161.0;0.11700812589240508;0.05965235809471966;0.0035554292413170303;162.0;0.1288863839711606;0.03537024217427666;0.0012538611545773164;161.0;0.10804265458624605;0.11686164176151848;0.013701155307627345;159.0;0.17246990882550503;0.10911787764328511;0.011945572743393224;152.0;0.1662319910698506;0.10261717786508534;0.010564619946270252;155.0;0.1619555217894376;0.09389333699975468;0.008844704187644806;153.0;0.15789480985604606;0.0871060837016664;0.007612121729606975;153.0;0.15509744552279456;0.08159820222580828;0.006679585791972987;158.0;0.15283500242615403;0.07687835560716821;0.005929220227545164;155.0;0.1501646333619973;0.0074234672411965415;5.5278132729645046e-05;154.0;0.06207989068426076;0.0669707983815875;0.004499740131637247;154.0;0.14514407001136392;0.06694543156410612;0.004496325452799271;155.0;0.14713973468025326;0.06904841004004854;0.00478317982905965;151.0;0.14937241482848138;0.0706886752148674;0.005012259630850676;146.0;0.15182878953273862;0.07479457785194531;0.005611703845195581;146.0;0.1557863508788967;0.08335238760717616;0.006969854232671297;153.0;0.1643994766557283;0.08854409074816982;0.007865233471751018;150.0;0.16738130962523726;0.0655903072564552;0.0043159678159702414;154.0;0.14361043452178654
0.03542170036826124;0.0012586383102980918;149.0;0.11209601419278378;12.0;0.03435220049423088;0.001183805179421345;153.0;0.10974069639884712;0.03335575948585562;0.001116060858379998;156.0;0.1082343762145204;0.03170678972509587;0.0010085179953184982;163.0;0.10610252696126488;0.030323154650088866;0.0009224040085245151;163.0;0.104819420398567;0.029628069600843014;0.0008803638545689084;165.0;0.10496707359320766;0.029790521377843326;0.0008898705696793452;161.0;0.1056031123158955;0.009929215112132718;9.891199412427386e-05;161.0;0.06901361035799249;0.030007931752319434;0.0009027588194488464;163.0;0.10279921285718537;0.02870434200468914;0.0008261171163285902;162.0;0.10217690645236434;0.028174372191286972;0.0007955249156662144;165.0;0.10161611596472442;0.02805148533761162;0.0007883900389494205;171.0;0.10139502077635064;0.029664189890875447;0.0008810439498643106;174.0;0.1031598172072175;0.03306997576485874;0.0010936907077719992;163.0;0.10800185618086171;0.04047055758189524;0.0016377030490269844;159.0;0.11775401806469381;0.03036959643768008;0.0009246151998915359;161.0;0.10081899545914394;0.09766080487757524;0.009563605222667394;156.0;0.16524555263271276;0.09283460840734321;0.008639575714311669;157.0;0.1598728989006625;0.08735332093194347;0.007650517230456025;158.0;0.15625395000660447;0.08176031958354463;0.006703719727897428;153.0;0.1541063794571001;0.07739824391812584;0.006007747884137784;158.0;0.15247075940782395;0.07385153309057575;0.005470263898305196;162.0;0.15106773873391535;0.07135882564722368;0.0051070243604695465;162.0;0.15030590720500525;0.007497434821104017;5.639020328245519e-05;160.0;0.06327554107632852;0.06391144665722494;0.004096961905604486;153.0;0.14562926178994856;0.0642675113035917;0.004143063822232711;152.0;0.14701001541093847;0.06580229818112601;0.004343196315608615;158.0;0.14825012695772227;0.06716813247342915;0.004525629077391296;159.0;0.15081880999665728;0.07005967019358568;0.004924094785428455;156.0;0.15492476102272332;0.07737063455771248;0.006005367381232145;161.0;0.16334708699385941;0.08127811952102264;0.0066277220153009245;152.0;0.16623281118759214;0.06275858416276804;0.003949968065824051;154.0;0.14498016107159553
0.032793140373886746;0.0010788671025600157;151.0;0.10600406201868938;12.0;0.031755182538509015;0.001011659364124849;154.0;0.1035779903515743;0.030785884872714338;0.000950837251833579;161.0;0.10133230495422481;0.029453747647289148;0.0008703508674332831;166.0;0.10037663512301748;0.028345555029173068;0.0008060938389216092;165.0;0.09978029803846152;0.02804872301909789;0.000789289374359209;167.0;0.09933763096350319;0.028099992134262314;0.0007921905227287555;156.0;0.10035907560558245;0.009662276808934316;9.361811804705935e-05;159.0;0.06800620896379123;0.027703197500795848;0.0007699080023885908;162.0;0.10036281903316237;0.026977200335502202;0.0007299357486528043;158.0;0.09974171823444747;0.02746989623052821;0.0007568034591306746;162.0;0.10058109238899837;0.02839596527766707;0.0008086674083196496;162.0;0.10235972914989279;0.029570933873829502;0.0008766030162943092;160.0;0.10407925487908078;0.03283092493650844;0.0010804383145313337;158.0;0.11090506710733994;0.03704968159798102;0.001375420778628971;151.0;0.11929404733087935;0.02776444161582753;0.0007732182475558954;160.0;0.09875220129220605;0.07250005658051814;0.005266041531662724;144.0;0.15749773625808244;0.06860706815784653;0.004716031634441101;145.0;0.15275807980517936;0.06463916418378021;0.004186958144947917;152.0;0.15038547277727685;0.061677835474980014;0.0038114765007841605;148.0;0.14805609519575474;0.0597079494113303;0.0035731935270067426;148.0;0.14679615950327593;0.057761951057498796;0.0033429989163133657;151.0;0.1452228146033826;0.057402045836736006;0.0033020925975068955;150.0;0.1452694475252711;0.007952072022899956;6.343993750063387e-05;159.0;0.06759835081778956;0.052865148720873015;0.002802029197477262;144.0;0.1441255078949621;0.05317545395278301;0.0028350151751638706;147.0;0.1464797885631854;0.05414126469141199;0.0029401266304779627;154.0;0.1478455032014867;0.056539708257951335;0.003205166605122988;159.0;0.14879718674570572;0.0612946665421683;0.003764626076773755;154.0;0.1535641189552929;0.0727820665300037;0.005307801354102949;155.0;0.1658033488716874;0.07713357441755106;0.0059622672411418325;157.0;0.16954178408591272;0.051572972503457624;0.0026666516548603837;144.0;0.14278128779752303
0.03264583198644124;0.0010686039161676944;147.0;0.10353875677255463;12.0;0.03191359028063001;0.001021181670226215;148.0;0.1018558341358767;0.03166776259292534;0.001005669484786569;154.0;0.09954598502445425;0.03104751773031839;0.0009666434022594922;159.0;0.09868452013611273;0.0304750026328927;0.0009313411438822023;158.0;0.09884610833925038;0.0297567829061172;0.0008882395836924961;156.0;0.09852011411228716;0.02879370089744824;0.0008317882519488151;154.0;0.09864510795625432;0.009193864356238734;8.47907089803928e-05;158.0;0.06917694442272171;0.02928233582315551;0.0008601957138881614;159.0;0.1007595005756664;0.029107186744671384;0.0008499945594142577;157.0;0.10023211650207788;0.029615914822646975;0.0008799645165495061;159.0;0.10143086622142589;0.03186972865191683;0.0010190008865713573;158.0;0.10435091122792345;0.033317013789120706;0.0011136226104538445;157.0;0.10623295179924515;0.03689128312360926;0.0013653333472991391;153.0;0.112776319703892;0.04128953154707079;0.0017103341791586185;147.0;0.12066810754186144;0.030514601510199028;0.0009340018789935008;163.0;0.10069680888436935;0.07154697657609536;0.005131801039996869;141.0;0.15194803984400826;0.06622937130878039;0.004397193612790797;145.0;0.1467974828978859;0.06327341325211212;0.004013907307832287;149.0;0.14469177251021978;0.06014570217127435;0.003627451854236459;150.0;0.14254886700167613;0.05775913789818455;0.003345923700670309;147.0;0.14184288617539895;0.05592590643819162;0.0031367179436036824;147.0;0.14132420997509318;0.05449357478439185;0.002978566067590382;145.0;0.14030152819433916;0.00837914293377712;7.043919146365225e-05;156.0;0.06918117450502013;0.050860877491009815;0.002594215133327784;152.0;0.14009034506927207;0.05136941563110374;0.0026462466823556604;157.0;0.1412003784340552;0.05299167587687465;0.0028159173530118947;157.0;0.14243846611044192;0.05433185931443739;0.002960354279498575;156.0;0.14104023036665123;0.059010477500860484;0.0034930591088522846;153.0;0.1448471182203203;0.07115565122411763;0.0050795967994636025;158.0;0.15595556229494648;0.07660921699571137;0.005887911760166923;164.0;0.15822167094789036;0.04894916462578472;0.0024017289993418;151.0;0.13721874124383282
0.03088688878979744;0.0009569505003849413;134.0;0.10165491989171811;12.0;0.030706139044694974;0.000945680698369677;137.0;0.10000652780322129;0.031233633710647985;0.0009784589202146694;139.0;0.09851057144277868;0.02996869516844856;0.0009007611566658518;141.0;0.09623500889769832;0.028656447616665488;0.0008237067828377332;149.0;0.09464532042132857;0.027811449904546006;0.000775687263375384;146.0;0.09488367609352043;0.02689098998959211;0.000725251683777562;152.0;0.09476087711325666;0.009600508013180587;9.246491724006499e-05;153.0;0.07087198000513133;0.028784195087624444;0.0008310714829103768;153.0;0.09815108618977501;0.02895188956502243;0.0008407810685965995;160.0;0.09758365889536347;0.029168015791482444;0.0008534498516031057;152.0;0.09793110056316649;0.03121381850953695;0.000977440855024548;151.0;0.10073459142981012;0.03300252920417446;0.0010926394820261953;152.0;0.10318489609093393;0.03609206928495617;0.0013068948818892897;152.0;0.1071076172407456;0.03993643351419101;0.0016001038621829072;154.0;0.11464664275198139;0.02917044245056311;0.000853681876660115;150.0;0.09830828162095352;0.08727741018401573;0.0076423820523273045;146.0;0.15283484396394864;0.0804207374489153;0.006488278834049634;150.0;0.14832837552393288;0.07559089858321297;0.005732652402312337;147.0;0.1446211147867291;0.07134470415439932;0.005106749182906953;150.0;0.14245721344910672;0.06801336376638367;0.004640955859412667;150.0;0.14106350696676032;0.0656406635453428;0.004322887626062651;148.0;0.1399132705400439;0.06312686525013682;0.003998165906291498;144.0;0.138119932542039;0.007830617597956214;6.151266654677176e-05;164.0;0.06554769431494324;0.05844187037264202;0.0034265236375055903;156.0;0.13418606630410446;0.05973429291740807;0.0035797622507647577;160.0;0.1350067340950941;0.062290739662240746;0.003892874588231294;160.0;0.13689952779337825;0.06343389613224347;0.004036862222936095;152.0;0.13543741704153328;0.06791336799827294;0.004626853114202467;153.0;0.13944099081037975;0.07807137359183243;0.006114091565517769;160.0;0.14712736007837662;0.08199390876392165;0.006745108145165386;163.0;0.14958824048504699;0.056716795532383596;0.0032273128924970966;156.0;0.13157949044036474
0.02576191667905093;0.0006653251823038303;144.0;0.09520185782123064;12.0;0.025482843842914424;0.000651269134135987;146.0;0.09299849567705164;0.02582540948413503;0.0006690103524099667;147.0;0.09202337809070998;0.024658554320495542;0.0006099990544565895;148.0;0.09066322638584762;0.023220215469829088;0.0005408330419498516;159.0;0.08799712332542484;0.022669892928548627;0.0005155451725326831;158.0;0.08716423004627166;0.02231028980822369;0.0004992585461827702;159.0;0.08781105919491808;0.009276590297664183;8.633598724097371e-05;142.0;0.07164734156479617;0.023789499940548166;0.0005674695004575943;161.0;0.09166567247475647;0.02418208698907337;0.0005863651856229177;165.0;0.09260171093176546;0.024622247156573233;0.0006079272105431589;166.0;0.09291776143028431;0.026192647626666975;0.0006879044027165251;162.0;0.09515539079595454;0.028162570761536894;0.0007953496334726372;164.0;0.09677858068848581;0.03126672645323263;0.000979858756901729;167.0;0.10102330286929694;0.03477865987833091;0.001212995976003126;168.0;0.1106935524866738;0.023769972106090605;0.0005667263019787384;153.0;0.09202961591699314;0.08637132606266311;0.00748334534716434;133.0;0.15043489813831998;0.07973838421726664;0.0063787386293582965;133.0;0.14601805968481985;0.07445670418344989;0.005561735873175826;134.0;0.14192073675405611;0.07007127707605791;0.004926050637132332;136.0;0.13906424617038424;0.06688910227334338;0.004488803692883335;137.0;0.1362167288471605;0.0641613990900274;0.0041301899783856896;138.0;0.13440008081068636;0.0625789619451103;0.003928826755425183;142.0;0.13273290551178646;0.007547230409177199;5.714676334209222e-05;158.0;0.06522194335819566;0.05654289264212717;0.0032071795858566814;151.0;0.12813120296335692;0.05700230444401846;0.0032595408918473573;155.0;0.12951471758000277;0.058857090364173734;0.0034749996472279794;156.0;0.13113391078301032;0.06209009680043524;0.0038670445569643956;148.0;0.13275389995628784;0.06702546118219342;0.004506776643837724;152.0;0.13684177158038197;0.07632563748567327;0.005843403474486001;156.0;0.14348641378223487;0.08137234524311465;0.00663953948178126;161.0;0.14880955239330237;0.055259429632496894;0.0030628750332016407;148.0;0.12684323486705648
0.030168134534716645;0.0009130372599415206;148.0;0.10442994462100746;12.0;0.030293067061384987;0.0009206590187429169;148.0;0.10381241276124072;0.031043139358687695;0.0009668514327865555;147.0;0.104308735977814;0.02891244076968291;0.0008384573530794493;148.0;0.10161179131444735;0.027645179011799137;0.0007666108391964626;150.0;0.09927164717564121;0.026979184396784317;0.0007300594526466289;156.0;0.09763202732396256;0.02680352591286073;0.0007206760794479042;157.0;0.09775082831286615;0.008834511701042207;7.829397217453375e-05;152.0;0.06991454115077116;0.028458418001891573;0.0008121400441895057;159.0;0.10143027313057158;0.027689892016969597;0.0007686312384172346;161.0;0.1016590659953144;0.027445355735718595;0.0007549797758255323;163.0;0.10191410818825133;0.027523277242064326;0.0007594589262089272;155.0;0.1021465218983478;0.02850286057296549;0.0008145251838717078;157.0;0.10317449617434522;0.03138146544297822;0.000987496564551128;160.0;0.10805851634072741;0.03618670478440979;0.0013135150442130498;163.0;0.1188615201193047;0.027657455985138215;0.0007672877032131539;160.0;0.10093497976565266;0.08495231032520219;0.00722644035997004;141.0;0.15266457321902022;0.08044636650213571;0.0064820508404710405;142.0;0.14858382836917966;0.07526334338464562;0.005675599007267848;142.0;0.1442590452346826;0.06885008981425084;0.004748597805298216;145.0;0.1404024217945419;0.06413003227361479;0.004120070981787929;142.0;0.13735110614716015;0.060488766499831814;0.0036640510697752635;145.0;0.13590965784388917;0.05828689052904526;0.0034018678826019683;153.0;0.13425663075811614;0.006923360273998426;4.8004693947334495e-05;146.0;0.06340122731441118;0.05191942377640419;0.002699867796607018;155.0;0.12852703889909722;0.05010811564299183;0.002515805117915161;157.0;0.12850274885206603;0.04869119345776781;0.0023767316176195787;158.0;0.12839024575242255;0.05091163301706301;0.0025988311668469245;156.0;0.12989104314016217;0.05585184913421593;0.0031280903114435776;162.0;0.13227172433681916;0.06704656066491016;0.004509111764813396;163.0;0.141604152954343;0.07233291442504933;0.005248084633751542;157.0;0.14542015022225824;0.05013192555350618;0.002517155973003087;154.0;0.1268822737159784
0.1416178025770478;0.0200499507260567;140.0;0.15709318407681463;12.0;0.155409201523151;0.024144581100776934;138.0;0.1612809012650457;0.1661695134774943;0.027604158479916503;138.0;0.16493377769387715;0.14263613367686148;0.020341025589548697;137.0;0.15571487292232591;0.12788167267421158;0.016352795889035446;135.0;0.1517897328314615;0.11928911812849215;0.014230164601425852;141.0;0.15020227010395157;0.11455610266820483;0.013132167477782375;144.0;0.14920501982993087;0.009694778010538595;9.429588679257678e-05;173.0;0.07031176855517605;0.11087662281693464;0.01230283842206705;147.0;0.1518959371424605;0.11115878643131265;0.012366987080211653;147.0;0.15170503466394053;0.11778040277001685;0.013888651884172059;145.0;0.15395706041740043;0.13318621820789617;0.01776711173859623;145.0;0.16138650405146865;0.1494536163950618;0.022378610845527724;145.0;0.17141251980188799;0.17066174570305437;0.029186803388765812;148.0;0.18548947972130372;0.20598418409319802;0.042537492334698085;154.0;0.20676721129166697;0.1084807121860552;0.011777508800889897;153.0;0.1498781987573663;0.14675645544166588;0.021582913434574042;150.0;0.18084262718837552;0.15110134390506927;0.022886624737240666;152.0;0.18175839136652946;0.13672759358933279;0.0187425649788501;151.0;0.1771526004251661;0.11862931258610915;0.014111225949897084;153.0;0.16985375713587342;0.10726262147720282;0.011537547200380367;151.0;0.16621826623476627;0.0992336943993036;0.00987557310010101;154.0;0.16373714040670104;0.09358364094931278;0.008783691238689903;157.0;0.16176136680600195;0.007381450826815568;5.466391889036188e-05;148.0;0.06374852400013294;0.08965342952939384;0.008063231047331455;154.0;0.1560579126331831;0.1014801818889226;0.010329028282692039;154.0;0.15769777800422324;0.10909988500748863;0.011936924560656634;155.0;0.15979441806230804;0.11033316492899942;0.012207615532349985;159.0;0.15934031706772334;0.12152486910711559;0.014810952732914887;159.0;0.16210809106223092;0.15141824953738856;0.023000029499944084;162.0;0.17520758957401328;0.17342490578838154;0.030171298583799692;153.0;0.18300641371022475;0.0848746897610355;0.007225736870722792;156.0;0.15250108696910497
0.16259084195182827;0.026521517716788897;154.0;0.17420329170282464;12.0;0.17528470799524462;0.030824432629653564;154.0;0.17730531293916724;0.18586237289310945;0.03465714231650513;155.0;0.1811890789082119;0.16095456335137542;0.025989896923749454;153.0;0.17216543626249345;0.1445598460385238;0.02096541439810166;148.0;0.1673457912598384;0.13492749097634046;0.01826381339530812;148.0;0.16584228318961788;0.1294552464579464;0.01681340464510509;147.0;0.16498087626965025;0.009573699968439294;9.195123232886696e-05;168.0;0.06695092316103243;0.12501061765467292;0.01567758819105408;154.0;0.16631786661122225;0.12640008925024665;0.016027921491220187;148.0;0.1672997596255943;0.1335002623803801;0.017879972071627056;150.0;0.16996539752601558;0.14927311730819876;0.0223528914008092;151.0;0.1776287463121601;0.16668504087140107;0.027872570680596145;151.0;0.1878391667945116;0.19040857206481843;0.03637082171344522;155.0;0.20211588737035752;0.23110360073856429;0.05358320408657034;159.0;0.22404258384412376;0.12275866116491013;0.015117638120107411;153.0;0.16387025506729433;0.1529343759281943;0.023460974524214685;137.0;0.1915572676329894;0.15810790791252038;0.025076774388686416;142.0;0.19281471200548914;0.14443339095871402;0.02092585406034249;143.0;0.18896985568511115;0.1259469801759729;0.015912136111901152;141.0;0.1804539361159745;0.1143449995596698;0.01311716192315911;144.0;0.17615539414362577;0.1062662631048349;0.011329083226624908;150.0;0.17285050611426828;0.10064735932196044;0.01016254463229288;151.0;0.1705741667809672;0.00797233372219777;6.373623318257594e-05;162.0;0.0617046927355367;0.0963317059501869;0.009309411240052586;152.0;0.1671092875464388;0.10871461303337658;0.01185749012886994;154.0;0.1718774087191493;0.11798281022548962;0.013964634273496262;155.0;0.17705300654429;0.12183447708488308;0.014890352450400466;154.0;0.17913131520084558;0.13642099295322488;0.01866964801354192;146.0;0.18594416921156587;0.1704970690731707;0.029162525105710674;153.0;0.20137056604020329;0.19484913189482375;0.03808182377529188;157.0;0.21001243801659955;0.09233483571856671;0.00855296925637471;151.0;0.16287268251978573
0.0900832861316615;0.008104402436860968;159.0;0.13828586578372598;12.0;0.0920051417724145;0.008441838690561112;156.0;0.13762889891152183;0.09551670719444973;0.00908165777391022;159.0;0.13878880313090766;0.08642241190081026;0.0074446782921226;157.0;0.13542311592405504;0.07856979608983816;0.006157184787991352;154.0;0.13218179589085138;0.07412177132640471;0.005486653226745058;153.0;0.1310132903690065;0.07135506732361332;0.0050875120227191865;151.0;0.13061435232124957;0.009739939730423376;9.5133466172968e-05;141.0;0.06645968071150293;0.0677135620880683;0.004587270341100447;156.0;0.1292428010814961;0.06967637489038582;0.004855053878028;155.0;0.12976543173398034;0.07192816683971748;0.005172210981001768;153.0;0.13070114535096375;0.07627737009669576;0.005821828751218054;148.0;0.13197362043205343;0.08293096071342718;0.006883775030830064;143.0;0.13491552790673833;0.09487928359426989;0.009011299829670746;148.0;0.141554089613129;0.11715378236552665;0.013749671455130423;152.0;0.15340282990812923;0.06631737114490582;0.004402072068166233;153.0;0.1274766218668532;0.10559195165225237;0.011125933325154274;139.0;0.17552743769413917;0.10558122042762275;0.01113555964763703;143.0;0.17307613719496912;0.10112464685472713;0.0102147626667878;142.0;0.1707589908245285;0.09143216305488487;0.008351909855662983;141.0;0.1649313885026009;0.08514928698667379;0.00725086944495357;142.0;0.16011577916283593;0.07941423733301387;0.006308026500547215;145.0;0.15606602610153084;0.07497047775924548;0.005622272348853427;145.0;0.1527762530181549;0.007407003200811126;5.5022917777843865e-05;159.0;0.061143253327566816;0.06597005738356662;0.004355349238112232;151.0;0.1471305679567909;0.06759651065887244;0.0045712525848683825;150.0;0.15133101720402173;0.07267695377605064;0.005285321200288148;152.0;0.15636810807050328;0.07811975092022551;0.006104956538118675;146.0;0.15887445175881917;0.08911314435885774;0.007944127851045741;139.0;0.16666514854869485;0.11095699896662976;0.012315000806270866;140.0;0.18207977885676;0.12180234001670584;0.014845995463775572;138.0;0.1865955708105416;0.06613600215751719;0.004374975330093491;147.0;0.144478020899239
0.04113696510810285;0.0016929281945679336;154.0;0.11426749271771439;12.0;0.04242831890213898;0.0018007186260500171;146.0;0.1132572327776712;0.04473632621670815;0.0020003687894775413;146.0;0.11258968456977454;0.04189822571516323;0.0017549205706411902;143.0;0.11054652799533655;0.0386012362441579;0.0014906568842669146;146.0;0.10934502805011428;0.03715301454144149;0.0013817614777819082;148.0;0.10839594643601003;0.03634291395556251;0.001323065251887329;149.0;0.10917762179481326;0.008954197980481597;8.041240557605125e-05;143.0;0.06810527750073796;0.03312791346757925;0.0010994890152217708;159.0;0.10985546523920572;0.03387539292788373;0.0011480295829916936;160.0;0.10996145675067201;0.03444155987415029;0.0011868204607129328;158.0;0.11033789195145133;0.03567939330659629;0.0012725676778311706;148.0;0.11046152499968333;0.038068069057828564;0.001448949430608527;138.0;0.11187842932033373;0.04327766585215112;0.0018712039048633298;140.0;0.11743831302224875;0.05140993306408635;0.00264489669666267;145.0;0.12468207146852234;0.0323756056009799;0.0010496253730856247;158.0;0.10951179882655404;0.10060696177848405;0.010150532779183541;150.0;0.16625324477906903;0.09857444608531318;0.009745925558888738;147.0;0.1625766332513727;0.09438909704526259;0.008937159759888194;152.0;0.16025286084094623;0.08484283962406017;0.007218962429396895;154.0;0.15710681512273766;0.07888205112402784;0.006238821528649807;154.0;0.15415691775963758;0.07269972877642353;0.00529738581092392;150.0;0.15201934190122832;0.06844399011917582;0.004695623264536395;150.0;0.14921903999478925;0.006910926310697207;4.791769760263043e-05;154.0;0.06430723084789833;0.058244164583426704;0.0033979620489240432;155.0;0.14265877840323518;0.05986971298746598;0.0035885994604399076;154.0;0.1442016544844571;0.06439071824054811;0.004147337178936851;156.0;0.1469161444455818;0.06600959621378183;0.004355896480722673;147.0;0.14737284236539114;0.07149565637334529;0.0051108943721286755;145.0;0.15167795770426024;0.08626725422444068;0.007440549532485938;141.0;0.16347086015803966;0.09269792186047066;0.008586998164697292;132.0;0.16614791366248063;0.057831275797851765;0.0033502859418261042;155.0;0.14073662050302838
0.03269982079473332;0.0010727732805144907;155.0;0.10514376880281723;12.0;0.031794709689686;0.0010141807265788823;154.0;0.10299090908161722;0.031185173516940657;0.0009757081142934336;152.0;0.10245934165811292;0.028777425089032176;0.0008308450103908911;151.0;0.10021823853883172;0.02734681259736861;0.00075023777782245;157.0;0.09923330957800691;0.026664655939779888;0.0007132786047879511;158.0;0.09808747148529647;0.026603601764724795;0.0007099469733102792;155.0;0.09957954947137192;0.008152306163699887;6.666429177442073e-05;157.0;0.06670321535522124;0.026321978419961114;0.0006949271065450153;165.0;0.10029589462050839;0.02689687254296598;0.0007257087121491578;162.0;0.10143291981522456;0.027464292507876364;0.0007565892858584678;161.0;0.10203163463135195;0.02824577644644968;0.0008003487836693748;152.0;0.10197685758921715;0.029743179493386368;0.0008873884267825984;146.0;0.10379468753646325;0.032924103824919886;0.0010873570860821706;146.0;0.1084941822233642;0.038260090076020735;0.001468370123263705;148.0;0.1151555774343302;0.02722623724355087;0.000742931854536237;162.0;0.10116525998391158;0.08583947787646531;0.007383795735233269;146.0;0.1550988893903636;0.08281537660025327;0.006870197039598959;148.0;0.15058956936128162;0.07988851584484481;0.0063885285220158655;157.0;0.1478293712533176;0.07243572832752293;0.005251970340004173;161.0;0.14532335673982427;0.06764144982103387;0.004578687258402817;161.0;0.1445204890368518;0.06386809035906009;0.004082610567092093;160.0;0.14442653871429367;0.06193082364636952;0.003838681202998464;162.0;0.14338222456679336;0.007120738823798594;5.080786150348421e-05;160.0;0.06512853910441274;0.0555326841668439;0.0030882840094684904;161.0;0.13952978711994432;0.057229565302453794;0.003280751898629418;159.0;0.1400150876926152;0.06042313205094474;0.003658121672862999;166.0;0.1429452424111874;0.061148721653043754;0.003746863244374396;160.0;0.14480831907423122;0.065590053110494;0.004308964424436098;163.0;0.1520775723917508;0.07718432473514067;0.005967692175528991;160.0;0.16485174027781813;0.08227749283853755;0.0067778576695690235;154.0;0.16594099666561388;0.054220674455771306;0.0029437389301242224;162.0;0.13694604300783988
0.031554995430893205;0.0009961208474976039;145.0;0.09878499121912122;12.0;0.030546564201111556;0.0009334860080688865;148.0;0.09734467015516657;0.02986355676960317;0.0008915183777648412;147.0;0.09656992835664828;0.02843073366005766;0.0008083208110207898;151.0;0.09594120790280637;0.027704537417676586;0.0007679088788821885;153.0;0.0946047960319443;0.027267753025177116;0.0007438865709282871;154.0;0.09412680536794957;0.02751463747891608;0.0007577685112405227;150.0;0.09529145819927046;0.00900537948210642;8.134540166257716e-05;150.0;0.06840678117418615;0.02673754400220718;0.0007156730088863652;157.0;0.09420696694240296;0.02723607806839201;0.0007421859160528629;153.0;0.0951055074137285;0.02803350906810517;0.0007863073744904908;147.0;0.0958727371255005;0.029337162566929358;0.0008608013659540974;142.0;0.09679891296401429;0.031903042992606025;0.0010187195575467939;144.0;0.0996425052099893;0.036038548851534236;0.0012998209598652935;140.0;0.10512865745599068;0.042045847600422515;0.001768194685034455;138.0;0.1126485297130123;0.027037415137374326;0.0007322953491854835;151.0;0.09427639771592967;0.07394330129703436;0.005485476206952572;152.0;0.1489006434304177;0.06962203508908439;0.00486259659092461;160.0;0.14372661187548383;0.06621922423791374;0.004398387787270777;162.0;0.14040734570695484;0.06249162414629446;0.003916362649249506;165.0;0.13783322054398714;0.060403766332551276;0.0036587887803677713;162.0;0.13637903555954217;0.058849905371052995;0.0034718643229041087;166.0;0.13581997223967815;0.057681756319777115;0.003335889047918284;164.0;0.13526432680486453;0.007558671649253759;5.732099848434433e-05;151.0;0.06444723949956713;0.05473174757093546;0.003003229939513305;166.0;0.13515821493162908;0.056113398602165944;0.003156033977285455;163.0;0.1373331839344;0.05949192061333562;0.0035464517494636517;169.0;0.14094167367715474;0.061445152359575206;0.003784352096824739;170.0;0.14196561389227033;0.06801667907459057;0.004638134886238894;173.0;0.14885459829770106;0.08204932435051644;0.006748341647994161;175.0;0.16095371942155914;0.09036835518263209;0.008187448340041183;168.0;0.16465940035468474;0.053518005312927754;0.0028713513795542737;166.0;0.1317250694167188
0.028426948739271148;0.0008098911124410066;149.0;0.09778378360777965;12.0;0.027702250476877476;0.0007691659716789428;148.0;0.09674117269001856;0.026865445091739087;0.0007236098279974365;145.0;0.09486482859522742;0.025796758866631617;0.0006673336483311596;151.0;0.09530676649999903;0.02499275901250603;0.0006264923775097513;151.0;0.09377991911406634;0.02493716272742603;0.0006237825652491509;157.0;0.09394849912274138;0.025580425395572766;0.0006564176246446487;160.0;0.09460341064046211;0.009721710891145536;9.482060988465626e-05;145.0;0.0716057921117228;0.026589996804999835;0.0007093258207600564;152.0;0.0958495791037068;0.02679380656611455;0.0007201266598417515;151.0;0.09644113404400591;0.027788365880920964;0.0007746085047279232;150.0;0.09712196725865527;0.029269675355211817;0.0008594810922970658;145.0;0.09815216857994756;0.03167235294077404;0.0010062650288713523;149.0;0.10041516272617;0.03540584577858691;0.0012575462881533551;149.0;0.10500642630403108;0.040233944625436585;0.0016240546896654764;147.0;0.10996874219310566;0.027451146909349362;0.0007560125950149146;150.0;0.09479371078851204;0.07433636003708982;0.0055422230345052404;157.0;0.1504470241297145;0.06807873601562962;0.0046482410567841095;162.0;0.1441267762740471;0.06384707654815283;0.004088067103962592;164.0;0.1402890578237728;0.06010090277245274;0.0036222961051266727;163.0;0.137876739599322;0.05772890036339953;0.0033430778542727912;161.0;0.13599878413764507;0.05577535830445665;0.0031205036013457386;166.0;0.13537497989831682;0.0540667189404779;0.002932666396170175;164.0;0.13433494169670943;0.007907514384307073;6.268442811271729e-05;150.0;0.06633344795984167;0.05334697534142122;0.0028543720422009177;166.0;0.13346918178130487;0.05597531813795204;0.0031428136190344274;167.0;0.13661655687346558;0.05956190289410331;0.0035585014915125355;165.0;0.1391892096522683;0.06233982666102525;0.003898421106210737;170.0;0.14060761508248235;0.07036761025064989;0.0049670269517310866;170.0;0.1473816734289739;0.08679353893737086;0.007555519391638925;175.0;0.16041614370125912;0.09259711490950186;0.008600983735923254;174.0;0.16335192988045988;0.05200903899158608;0.002713466898192869;166.0;0.1306576549489326
0.028080560428520113;0.0007904352953476026;150.0;0.10066162993476986;12.0;0.027812195814310294;0.000775075822537798;147.0;0.09930646137468149;0.02650651123408359;0.0007036687185135429;142.0;0.09616985763830133;0.024838586795164545;0.0006181017065771517;146.0;0.09505186277952862;0.023325530103273647;0.0005450751468177865;148.0;0.0939657631029832;0.022540332574773413;0.000508829584331735;153.0;0.09361642687639064;0.022310876411283084;0.0004985395023547682;158.0;0.09363188344237683;0.009802781456288408;9.64086530996711e-05;143.0;0.06883667623573196;0.023147375205686813;0.0005364069482031796;152.0;0.09540897934752392;0.022531480181062047;0.0005081206261515202;150.0;0.09485685327417799;0.022837407353530487;0.0005220674807458276;155.0;0.09643645325997807;0.023804994808520278;0.000567400154140403;153.0;0.09629345465443816;0.02514046824982258;0.0006326060879724666;151.0;0.0976007235687537;0.02804916036672585;0.0007874749957942341;157.0;0.10009677074611834;0.031538893184168214;0.0009955642949012987;149.0;0.10362573064472427;0.02509305917899076;0.0006309899413733582;147.0;0.09484003477619155;0.07341252780816936;0.005402690286231098;139.0;0.15485803211627464;0.06856049520648091;0.004712320645652786;146.0;0.14958776426501189;0.06549401471944984;0.004301356950373537;150.0;0.14580401875242693;0.0618090293593918;0.003830470578098246;149.0;0.1428752136473436;0.059115755962075335;0.003502841383679782;149.0;0.14084418835802706;0.0572470186644203;0.0032856740291809577;152.0;0.13980035281159447;0.05613434367730954;0.003158105704884796;152.0;0.13955532294622564;0.008019188203304202;6.451861182108394e-05;158.0;0.06589539451004849;0.05332334143732234;0.0028502754250461747;145.0;0.13544300522353164;0.055771786782491964;0.003117314457081482;155.0;0.13785505332054804;0.05739654813247635;0.0033006598711987556;151.0;0.13879734842255995;0.05864885847067401;0.0034459749631571045;153.0;0.14104039872977664;0.06373696838045913;0.0040711890735868955;152.0;0.14780794648831214;0.07645784129401115;0.005859738410575735;155.0;0.16158460733089253;0.07527587549401474;0.005678685256990469;154.0;0.16091221979441822;0.04967039721841785;0.0024725278475304503;142.0;0.13166281849200398
0.03161630670527001;0.000998995006876177;135.0;0.10295906576063499;12.0;0.030872661931140903;0.0009526371535251984;130.0;0.10172932764344844;0.029459185478537216;0.0008679605384876874;126.0;0.09880010811838864;0.0278290873306073;0.0007747891277705842;135.0;0.09682549889016352;0.026041263577368766;0.0006788009323135977;137.0;0.09574384134829539;0.025225696616714175;0.0006368859426809111;141.0;0.09536119814497768;0.02505967038887813;0.0006283931450968824;145.0;0.09551744483205754;0.010001891426886256;0.00010035213429151297;151.0;0.0680815174039043;0.023881580008703187;0.0005707372182357601;141.0;0.09536751811571546;0.022568414026515146;0.0005095852973957296;138.0;0.09396935792846216;0.022195221727909123;0.0004927032545915783;141.0;0.09465419155006928;0.023155873053421268;0.0005360774462764608;140.0;0.09489115909966626;0.024638836616189895;0.0006070521570486218;134.0;0.09646467605226902;0.02832467057851389;0.0008019145287746907;136.0;0.10044251998139976;0.03361205001165067;0.0011299155333330908;133.0;0.10782358441251234;0.025925478940630468;0.000672346794079332;140.0;0.09529976216330086;0.07807404529245725;0.006098903030757663;144.0;0.1551057794598578;0.07545330593883255;0.005697073525810634;151.0;0.15195676232078925;0.0721188051397655;0.005208786236615298;151.0;0.14825172878488554;0.06665933280785592;0.0044482036200543165;150.0;0.1445027179721555;0.06257062471931958;0.0039191675992154154;153.0;0.14253210423969473;0.05926035316658007;0.0035176139466681663;153.0;0.13993731179157157;0.05700683223631355;0.0032553728736232804;157.0;0.1393379472437502;0.007946783522935867;6.334180685963876e-05;156.0;0.06268962313429444;0.05250596062858332;0.002761134561435299;148.0;0.13531082904724673;0.05439197995168917;0.0029636601094102854;156.0;0.13676247593653013;0.055697623899289374;0.0031079571422310036;155.0;0.13823073447687445;0.056227836096137934;0.003165474637757223;156.0;0.14106925745036453;0.05894087474401272;0.0034773584117570575;156.0;0.14591421984707442;0.06679685349522048;0.004466066012796798;155.0;0.1560866931559216;0.06801686950890323;0.004633728356130739;151.0;0.15697552778638799;0.048198439366324716;0.0023265697960033398;145.0;0.13106710627666676
0.02905953472836778;0.0008471399882151464;149.0;0.10058257932432395;12.0;0.02813844780070998;0.000794296343423579;148.0;0.09845904489030974;0.027206693731915938;0.0007425539994964902;149.0;0.09692820726404937;0.026227536460637167;0.0006900588432858115;156.0;0.09540038382115457;0.024888085594146174;0.0006213171850345438;156.0;0.0946875909829451;0.024595126457764384;0.0006068365032713615;159.0;0.0939183734592808;0.024967257255515417;0.0006253914546791366;159.0;0.09408654231712879;0.009887012052354292;9.806399512943845e-05;157.0;0.07019473576764508;0.023908240478733384;0.0005734701292976273;153.0;0.09417492378292171;0.022650427116116704;0.0005146916671795861;154.0;0.09278413153563568;0.022235080060544487;0.0004960041061690351;154.0;0.09274679410353553;0.023141220078113377;0.0005372179415463563;158.0;0.09413908043302266;0.02459018231129132;0.0006066115445288118;154.0;0.09705629416254971;0.02778035263697858;0.0007742270929316001;158.0;0.1023592835556841;0.032476744209602615;0.0010581517677468715;169.0;0.11033564968066426;0.02518804127102172;0.0006364702851915211;161.0;0.09375975590306573;0.07523869426100763;0.005678055941802453;153.0;0.14432145019927825;0.07313482209775947;0.005362394291199619;156.0;0.1429013884959104;0.06726096486177417;0.004537023054519947;152.0;0.13890253744154663;0.06079465597788178;0.0037065576402471137;151.0;0.13417864705050725;0.056122811019201295;0.003159586827420597;156.0;0.131738716728276;0.05214173897444499;0.0027274130842523045;156.0;0.12876411524286327;0.0490794405988885;0.0024166194000588936;160.0;0.12672742872335838;0.007995621755067775;6.413427800217313e-05;156.0;0.06455818580555409;0.04551023523113583;0.002077860892487865;159.0;0.12383505914980014;0.04662714311913467;0.0021812242984011023;159.0;0.12425623475347343;0.04836244811257156;0.0023466304960774423;161.0;0.12539271757987974;0.05119348046892631;0.0026293649055025223;158.0;0.12879655016870079;0.056282990368011813;0.0031780742552834362;157.0;0.13550951601277464;0.06609624672929883;0.004382627428296815;156.0;0.14574843671166524;0.06958881857443565;0.004858223939794419;152.0;0.14714495897440397;0.04279929494416402;0.0018376281836978909;158.0;0.1210518062457497
0.06778348907735107;0.0046076919435953404;155.0;0.10976115875756197;12.0;0.07837883296494073;0.0061633271143085745;148.0;0.1133879217529138;0.091425295009881;0.008387248716398336;157.0;0.12033865539452783;0.0744850872583155;0.005565005272790538;149.0;0.11173915234566457;0.06265717523744534;0.003936376952444768;153.0;0.10752257500454514;0.05648819785247122;0.0031972155710444194;155.0;0.10374292520438542;0.05281335861853673;0.0027937109937904952;156.0;0.1021879281626451;0.01005708678410547;0.00010145292530420239;152.0;0.07143609796912946;0.05004935286781248;0.0025041159088279347;165.0;0.10221491000137475;0.050716255647859976;0.0025690504162919664;162.0;0.10077646077296196;0.05246923786763812;0.002750495079440296;165.0;0.10136123173140484;0.05598831719198119;0.003129868994272163;166.0;0.10213789234266787;0.061113695181216676;0.0037246763288463483;167.0;0.10586437370107243;0.0691898583800949;0.004768435374007686;169.0;0.11236296948532552;0.08583353987077412;0.00733509733206093;175.0;0.12383087962823824;0.04758361268974617;0.0022622482179698433;166.0;0.10180626331450235;0.16706592804695028;0.027978530246421163;164.0;0.1960819454684063;0.16906780015241765;0.028648815851094574;165.0;0.19555463912202056;0.15412187991198104;0.023815181255984353;163.0;0.18652649933017382;0.13917672191221175;0.019424972043921906;165.0;0.18120230727103706;0.13216163773205494;0.017514112349574132;162.0;0.17935380709996543;0.12814788308252703;0.016467667083753607;162.0;0.17796592376754258;0.12575490567227365;0.015857581262714103;159.0;0.1766778027984413;0.007974297116868272;6.379050680240283e-05;159.0;0.06671204312748724;0.12489445703008285;0.015640216904068492;163.0;0.17895722246708723;0.11559992671112003;0.0133997931613195;164.0;0.1793554710440985;0.11462707321383504;0.01317456608363322;169.0;0.17990403369800415;0.13919856594432176;0.019425402884361308;158.0;0.18701880673133348;0.18734262490835624;0.03517971317589233;157.0;0.20901190435546402;0.26286113609299944;0.0692598957854748;166.0;0.2454104336918143;0.29714072903971844;0.08849579446466847;161.0;0.255497264405265;0.11532456499468936;0.013336379014373055;160.0;0.17519714156664543
0.14611124122630825;0.021411419349592627;144.0;0.171063764956192;12.0;0.1536893097678201;0.023688296207688746;134.0;0.17485278574428884;0.170313964938978;0.02909626512894211;140.0;0.18277057825950527;0.15016734174861918;0.02261483596979039;132.0;0.17157301161784994;0.1378271128468315;0.01905349681298093;141.0;0.16812352759875332;0.1323794059307873;0.01757770886282404;144.0;0.16613715375606614;0.12997628847786208;0.01694573349618209;150.0;0.16560396671450855;0.009534880043874684;9.121016035463348e-05;162.0;0.07034463385852062;0.14294442400242313;0.020499714488136426;158.0;0.16779593467451054;0.1554015975843236;0.024228573952504287;151.0;0.17014023486127985;0.16789542168970725;0.028280880066215285;153.0;0.169711785315711;0.18661586038873618;0.03493884555966053;153.0;0.1712255527565214;0.2142211128983554;0.04603986291204857;155.0;0.17981647561138853;0.24979165311763415;0.06259609960312891;150.0;0.19498146427392085;0.3066049172896246;0.09431103729189803;151.0;0.22038529416377106;0.1268142670852972;0.016133779032944176;155.0;0.16163104622932786;0.19399796454245916;0.037755098810981005;160.0;0.22816826884227456;0.19514706505881277;0.038204997758339215;163.0;0.22717581327195346;0.18203605451056515;0.03324542651024702;158.0;0.2217904356323427;0.16525948723389444;0.027399884206694505;159.0;0.21762566297065705;0.15616352657734253;0.024465749656845982;155.0;0.2163394071509319;0.14909581904140912;0.022301937707370413;157.0;0.21403545909370184;0.14432188237458837;0.020896727820716474;154.0;0.2122864201321495;0.00886682544671429;7.887041902266116e-05;163.0;0.06632693277449118;0.1398227933853073;0.01961429206729317;148.0;0.21028421257009858;0.1326152599457462;0.01764422089354307;154.0;0.21099280432100995;0.13109691299498355;0.017242496565867085;163.0;0.2106267746402167;0.1515795213614608;0.023050941779827597;155.0;0.21513927359765653;0.19777301960257276;0.039239826403904755;154.0;0.2327219103729064;0.27221705502151866;0.07434334591859863;163.0;0.2640449934886258;0.306787094060244;0.09442415319061152;159.0;0.2753490502366305;0.12988430959417022;0.01692503397738535;150.0;0.2058299890483911
0.14092508088047814;0.019922079027242984;152.0;0.17903216966605492;12.0;0.14301208465507842;0.02051481638306925;153.0;0.17909983821993072;0.1529465880907822;0.02346173677913464;148.0;0.18185146897609483;0.13977591063956238;0.019599631818233428;146.0;0.17543062177864557;0.13230485983751353;0.01755932412689924;148.0;0.17415819292799326;0.12934885240062874;0.016785738475475567;146.0;0.1740231298893154;0.1284211729440443;0.016545838337130886;154.0;0.1744838559660154;0.008436470853845643;7.140060317079639e-05;159.0;0.06539334052817865;0.14314128375004084;0.020555171485545084;149.0;0.17702308464879388;0.15576107226004943;0.024337073397661724;144.0;0.17920502304187957;0.16835354705868563;0.028433125522614813;142.0;0.17890121257305117;0.18751720803427954;0.035276453426270254;145.0;0.1810328346679202;0.2149122246675074;0.046333842350723395;149.0;0.18884949103225526;0.24981583756645703;0.0626086386995388;145.0;0.20233829721786875;0.30507116527866746;0.09336031416804091;147.0;0.22441226361581973;0.12744169502219174;0.016293224231578324;152.0;0.1704446380473298;0.14208160424318975;0.020253035216842255;144.0;0.196600720836473;0.13834089652937717;0.01920030682003298;144.0;0.19390103644979706;0.13063048903203778;0.01711996139798987;139.0;0.19285719541895807;0.11779134899510378;0.013920198465816545;141.0;0.189749962584511;0.11057543750045337;0.012266340846897825;140.0;0.188010330277668;0.10524070043648158;0.011111911029520822;143.0;0.18739468459235636;0.10007652638960617;0.01004813630051652;140.0;0.1858623818206652;0.008375457928020271;7.03775051184018e-05;158.0;0.06338468782368993;0.08959299455298474;0.008052973080527043;134.0;0.17621908691927132;0.08872682428701881;0.007898282863502394;137.0;0.17605929052957836;0.08697402513945304;0.0075892564326988194;147.0;0.17584673327025366;0.0889312031764;0.007934459865002219;143.0;0.176793773574451;0.10071308696078286;0.010173905820381635;142.0;0.18349169754852795;0.12034032806169334;0.01451429582620302;149.0;0.19432530753137192;0.1257110539630517;0.015825665227210784;145.0;0.19920480222205253;0.08505896965975297;0.007258760313750107;141.0;0.17271875039625367
0.06714569852468602;0.004517149083667971;154.0;0.1318962931860356;12.0;0.06610991537413075;0.004377142044626689;156.0;0.1300720599057143;0.06546966918864254;0.004294154669989484;153.0;0.12786286016511947;0.061245183820603094;0.003756289659696126;153.0;0.12728257262982207;0.05792308930884967;0.003359333970696876;154.0;0.12512512251278904;0.05666981610313379;0.003219138380711822;155.0;0.12444506843543446;0.05601307520777162;0.0031447705060634146;157.0;0.12471811510522751;0.009513517525415198;9.080008612302245e-05;153.0;0.06659394753229221;0.0575882696170505;0.003327276535376478;150.0;0.12542960358755004;0.059270093678332074;0.0035232926998650803;152.0;0.12595326298616039;0.06208770695866812;0.003866310692404299;150.0;0.12645985073857904;0.06807040780336245;0.004648215392618266;148.0;0.12989562971950158;0.07421070047168563;0.005522551276682378;151.0;0.13435393125813608;0.08198779286224177;0.006740863169713742;150.0;0.14066041197876364;0.09425377755831654;0.008907272902338812;150.0;0.14721448169227905;0.055774902609689224;0.003120663817700623;152.0;0.12372023081554623;0.12042194992285986;0.014544249348632873;146.0;0.18589223152308257;0.11615384324796088;0.01352698302825711;144.0;0.1818533726659211;0.10783850208568584;0.011656950683004581;152.0;0.17828007641674723;0.09710644096490965;0.009450145330980656;157.0;0.1747375544765999;0.09038846460591414;0.008184761702266846;154.0;0.17158968511189035;0.08840075280561673;0.00782736860302123;156.0;0.17160692909421602;0.08588885532150804;0.007388059731740248;153.0;0.1708076734588963;0.0067718982004268255;4.5995534469719834e-05;152.0;0.05868089639353725;0.07633386909644893;0.005836482705290196;161.0;0.16190392431313577;0.07393035493291315;0.005476364965848375;156.0;0.16130279248660065;0.07439023876327311;0.005544907260218843;158.0;0.16330031724486388;0.07888537935736767;0.006238427316943511;156.0;0.1671310706582084;0.08930495098173344;0.007996525958709763;159.0;0.17732149620344628;0.10680170016943744;0.01143720527541421;159.0;0.19219563003936257;0.10940340337472734;0.012003079925015587;155.0;0.19368285693383366;0.0732741536718155;0.005378996731325761;161.0;0.15918313563437336
0.045675220663975814;0.0020919059836965264;142.0;0.11152189165515637;12.0;0.0456852886596084;0.0020926431436321005;143.0;0.10979200179097279;0.04719700333325833;0.0022345630912892185;147.0;0.10890536747455808;0.04482498378722491;0.0020152006768760305;150.0;0.10799056508817183;0.042078525386890005;0.0017754543194871137;152.0;0.105122354553033;0.04026627385197801;0.0016257943581853046;160.0;0.1035004321348769;0.03951789307492065;0.0015661147505841618;158.0;0.10282621582251268;0.010187253542727523;0.00010410606952449331;155.0;0.07176168349613271;0.039830726032147545;0.0015910616245060772;159.0;0.10496937109513918;0.040325289799883826;0.0016310370113415853;163.0;0.10658984147626124;0.041803838592870256;0.0017528143260335499;159.0;0.10762073496521453;0.04484943251669591;0.0020177204078522955;156.0;0.11064956749986099;0.04934320477812181;0.0024412837166351755;154.0;0.11546400293583176;0.05533498634753134;0.0030701649940260978;153.0;0.12223614426603256;0.062048215916952254;0.003856335126025614;148.0;0.1287726948347638;0.03915570664303486;0.0015378367499151767;157.0;0.10362326372476767;0.09982089024594148;0.00999647041828927;150.0;0.17921500095277174;0.0978264780610187;0.009601068654244397;138.0;0.17765667539909605;0.09555356282821405;0.009160339674105662;151.0;0.17661588901466846;0.0880992145014781;0.0077864411300262075;156.0;0.17438816703237378;0.08257583748271276;0.006840156939568476;159.0;0.17234708639829677;0.07960297726488849;0.006356778272255438;157.0;0.1698981977756096;0.07747264778230444;0.006021131193101949;155.0;0.16797674941770607;0.006921974481138594;4.8065198850388976e-05;161.0;0.06199451914386715;0.06724428353063656;0.004535722053817597;158.0;0.15981685555108932;0.06818156585391505;0.004663300271608137;157.0;0.1603857373832916;0.07063331022356287;0.005005206226560173;156.0;0.1626670224414008;0.07159202610547186;0.005142116168131164;159.0;0.16394817036704062;0.07592002860559002;0.005782676471734049;162.0;0.16971284640931567;0.08887345745813725;0.00792414713427024;159.0;0.18062013529640225;0.09321940287563707;0.008714366516512287;154.0;0.17979961739113515;0.06556015167304494;0.004311634130121049;156.0;0.15726520082263667
0.037601334387132646;0.0014181384378291536;142.0;0.1054250474113256;12.0;0.0374353747606807;0.0014058377240152176;145.0;0.10379106661270293;0.0391219502184139;0.0015354175357615973;145.0;0.10243703824038679;0.0363448230639569;0.0013251502713685533;149.0;0.10024594529575466;0.03378758213974459;0.0011452938047483035;146.0;0.09867964111163952;0.03137949791653857;0.0009878110699703274;146.0;0.09714514448711704;0.030857843808293362;0.0009552627203047955;151.0;0.09737986641455224;0.009265460843283701;8.612686780361884e-05;156.0;0.0700144762548478;0.02891406570150819;0.0008385125086605317;154.0;0.09680879129154826;0.028562972606671178;0.000818211627266587;153.0;0.09708175682552074;0.029153661648712755;0.0008522627634155328;155.0;0.09825710437914305;0.031060338152095197;0.0009670753383362097;150.0;0.1010719588422682;0.03317728309827427;0.0011033827014567702;149.0;0.10464398111597796;0.03639000119919909;0.0013275704408996036;147.0;0.10927975503790029;0.04047920775399676;0.0016429627869320657;143.0;0.11654550075979073;0.028838321018391115;0.0008338674959719175;157.0;0.09487706516647387;0.10148309721006825;0.010332001467226697;147.0;0.1701985095932643;0.09760154221362174;0.009557231624826714;130.0;0.16712769240501546;0.09492794229810982;0.00904087529189849;140.0;0.16623716477321607;0.08818227736351665;0.007801609830701927;141.0;0.1642049832279989;0.08420269583964025;0.0071132633027116195;146.0;0.16270721189788656;0.0821244996427897;0.006766444630149803;145.0;0.1616003093804374;0.07968329989512092;0.00637012335555129;148.0;0.15913112197336046;0.007916810528856988;6.288155745518134e-05;148.0;0.06760388081163428;0.06707376590096029;0.004513504290856518;152.0;0.15299458258779514;0.06712150470505393;0.00452001853798676;151.0;0.15390691449053762;0.06811268742592265;0.004654455730475759;148.0;0.15627719611855728;0.07125285376123483;0.005093525187705742;153.0;0.15675140107031293;0.07859103750345717;0.006196728257078805;155.0;0.16112095820460426;0.09412233291711121;0.008888002469122705;159.0;0.17128561829106517;0.099347994270804;0.00990188123182326;152.0;0.17350479137683902;0.06547073394805913;0.004300448719257176;149.0;0.14960227340947269
0.03694841465312679;0.0013689924552877555;145.0;0.10810517466960416;12.0;0.035738259104324974;0.0012809529995179366;143.0;0.10682755339004668;0.03451237347965538;0.0011943112939403575;140.0;0.1038214976886125;0.032706921583203305;0.001072334856990656;142.0;0.10248223391522901;0.03150075052547466;0.0009942979301251966;141.0;0.1023310219645083;0.030315706733895546;0.000921192305452993;138.0;0.10236727094891912;0.029714386121272907;0.0008844667970916383;146.0;0.10198469847476906;0.008920826914676265;7.984140739260116e-05;145.0;0.06894045839150012;0.028077857363902017;0.0007895833843842128;148.0;0.1000145832846569;0.027002666050705063;0.0007301802017398789;146.0;0.09941275111692582;0.027157973376495302;0.0007382223149700912;146.0;0.10019948568483174;0.029346094360978833;0.0008625500134988853;147.0;0.10247603229652788;0.031563169329213873;0.000997841324741235;144.0;0.10542198152970603;0.03499395408302534;0.0012260576353161198;140.0;0.10965434684628;0.03866055914696798;0.0014978746942460113;143.0;0.11458404630571481;0.027697527858723026;0.0007685154107301915;146.0;0.09833723778818952;0.10651837832587042;0.011382888940793106;136.0;0.16924093194575077;0.0995797416392037;0.009948134507938354;130.0;0.1628538194717801;0.09471427581597812;0.009000033305997595;136.0;0.15984904641871386;0.08912828758381933;0.007969929073869156;135.0;0.15715096055629413;0.08467396910955668;0.007193222375095766;140.0;0.1549442829608264;0.08163302164622184;0.0066856732911516215;139.0;0.15363349504434845;0.07903372806324813;0.006266773070189643;144.0;0.1519391942913704;0.007877467440721372;6.22567913331979e-05;147.0;0.06403482827737712;0.06663887289270341;0.004455048817662152;156.0;0.14766533302072635;0.0660770934575877;0.004379599685200014;151.0;0.14875355732500972;0.06725838960251664;0.004538040647359349;147.0;0.15117127709523073;0.07002368487672501;0.004918972748940986;153.0;0.1528388774163556;0.07641730670771721;0.005858649025242231;158.0;0.15788881059635648;0.08934980214037491;0.008009272141487736;161.0;0.16849415678407426;0.09396569467967086;0.008858180654608624;153.0;0.17162869269528178;0.0658888207011236;0.004355317986256529;148.0;0.14459724385973713
0.032841135019669;0.0010817547173999843;147.0;0.10389804535509811;12.0;0.03237008210491577;0.0010510681544455484;146.0;0.10241681658375841;0.03144681696273424;0.0009919163770001896;145.0;0.09989127410396927;0.030568135379781272;0.0009373189644791673;145.0;0.09879069959561224;0.030226509155789675;0.0009165012710368079;146.0;0.0990483491499229;0.029845288311928186;0.000893626267056681;148.0;0.09941436109223561;0.029716652835233354;0.0008859351008657168;152.0;0.09802584796750298;0.009448599094837341;8.955199638636954e-05;138.0;0.07043160773117509;0.028476900254708913;0.0008134891105994682;154.0;0.09689810362688131;0.0294895584341475;0.0008723434184511051;150.0;0.09878218700438436;0.02982779520358644;0.0008925733390593407;139.0;0.09858202930680095;0.03058221417619997;0.0009383210586695652;145.0;0.10000288603656737;0.032492827249520406;0.0010592284218731492;152.0;0.10242806571537019;0.03619240890407661;0.0013141624485846419;156.0;0.10679790473745789;0.04080480181907258;0.0016703677711798976;163.0;0.11315026402335102;0.029512242468743326;0.0008737722000810807;155.0;0.09512811081119739;0.08505540690769986;0.00724823658750675;128.0;0.15190842032438254;0.07871912183033933;0.006208842620433586;131.0;0.14471068352488473;0.0750989643250541;0.0056534186723152914;133.0;0.14209993618651032;0.07152255191300165;0.005127669422977835;134.0;0.13976500972080202;0.06856462990559531;0.004711168398380801;137.0;0.13852944737084508;0.06543542756345345;0.004287566977270768;134.0;0.1367310202985954;0.0633203349810649;0.004014012030940954;134.0;0.1355843880729773;0.00728935352089627;5.330832683258054e-05;155.0;0.06382472407294504;0.0537004549325485;0.002889797240978774;136.0;0.1333408930045338;0.05485992493590279;0.0030144393377771785;137.0;0.1348486458300098;0.057296383103056486;0.0032879599039545675;136.0;0.13708556591849863;0.058137132006327946;0.003383781457243489;131.0;0.13952677253814477;0.061159098139539056;0.003742904617310512;137.0;0.1460775383654742;0.07029467085686271;0.004945647903235322;140.0;0.1582217989839236;0.07122248846723793;0.00507969074487802;141.0;0.15929628838774498;0.053570878175524944;0.002872812939616483;131.0;0.13032800010594725
0.04395904518567596;0.0019386805752575256;145.0;0.10648072100672051;12.0;0.04308142699468286;0.0018619528329016715;144.0;0.10394206403484105;0.04112638529393062;0.0016967229619420426;144.0;0.10051646992838151;0.03845270624272095;0.0014832499440710775;145.0;0.09864199140455757;0.03683031447427206;0.001360753861148957;146.0;0.09712715754676225;0.035360056825451215;0.0012540992345064551;146.0;0.09631201747347687;0.034612752865845794;0.001201548970837711;147.0;0.09553610750952003;0.011192006399281256;0.00012564670552007035;148.0;0.07216557534668286;0.03159573838432979;0.0010012972213418252;144.0;0.09604323612424254;0.033302298131993216;0.0011121230880006155;146.0;0.0986737219704037;0.034650092417328006;0.001203817747774662;142.0;0.09891380408654592;0.035434096484429765;0.0012590716496860427;143.0;0.10101579880471726;0.03681469776673321;0.0013590194878536396;152.0;0.10308363489509079;0.03993068078406411;0.0015984590830614934;154.0;0.10761981129262037;0.043770812091030946;0.0019211181533035403;159.0;0.11451215628829485;0.031948343709214566;0.001023739902154823;152.0;0.09245579111324242;0.08210247327795901;0.006748853746585742;123.0;0.145562409771745;0.07697836843242158;0.005931717221897067;135.0;0.1386757412260662;0.07399414296517366;0.005482980811459149;138.0;0.13571947604930504;0.06908308248152588;0.004780071605078191;137.0;0.13310967842482482;0.06407168616523226;0.004110634402007358;140.0;0.13168215018547602;0.05966451750875537;0.003563495728825659;136.0;0.1298582428183694;0.05686064675411821;0.0032368131927271587;138.0;0.12949334567383147;0.007194575619450226;5.193119387429336e-05;158.0;0.06371095944541078;0.05132787358648993;0.0026381563603560597;139.0;0.1300761568169996;0.05284599079638906;0.0027964197982600757;141.0;0.1310665996148305;0.0551742491941689;0.0030492335606647825;140.0;0.13246386113120437;0.05942018966339156;0.0035365955403299644;129.0;0.1353029080427005;0.06521361494742718;0.004258006532601659;134.0;0.14190480164803135;0.07427946229461782;0.005529480726227533;137.0;0.1537319397773239;0.07369332410440202;0.0054454384273572055;138.0;0.15316694858063007;0.05006446807306729;0.0025085041779831;138.0;0.125994201302739
0.0476342691292303;0.002275598960008258;140.0;0.10706498599864162;12.0;0.04630150580958514;0.0021501590115964113;137.0;0.10421689476302265;0.044209758994154545;0.0019597355637845045;141.0;0.10061171640073246;0.041387224334879374;0.0017179076353490196;144.0;0.09837926502977043;0.03899764054148591;0.001525505870752773;143.0;0.0964667625491468;0.03717624884645652;0.001385978158678242;146.0;0.09485563885227491;0.03583216440395319;0.001287443973704378;146.0;0.09411714189022174;0.01210048032725987;0.00014689650197358982;153.0;0.07462816009001909;0.03307998760680291;0.0010978377029385717;135.0;0.0952659226236658;0.03208277125883121;0.0010326528340382282;149.0;0.0954971992259409;0.03292843659903311;0.0010878205000514024;152.0;0.09695592605699078;0.03438730634135687;0.0011863334649582487;149.0;0.09979204931616592;0.035665802333838696;0.001276207344361615;149.0;0.10148368091303114;0.03872162507935018;0.0015042617454918824;147.0;0.10686650992699386;0.04175748256698535;0.0017493766362048154;145.0;0.11230470085760219;0.033262882973033515;0.0011099855451819477;136.0;0.09350412479788377;0.09758339462553241;0.009521270822326665;142.0;0.14481614677549676;0.09321496576602957;0.00868723986135686;143.0;0.13949138189703741;0.08908497704678667;0.007934274833540356;145.0;0.1360291747447496;0.08243730908631998;0.006798664229874357;143.0;0.13361576815713225;0.07631292667474471;0.0058235505026047575;146.0;0.13183385738733647;0.07146113902243392;0.005107328891287018;142.0;0.13019261658724954;0.06808872708906903;0.004637763594309254;145.0;0.1300164870745372;0.007177487936550052;5.168148584430545e-05;163.0;0.06178325958604959;0.05846478468575365;0.003420747279752402;154.0;0.12714746227886398;0.05781756162231196;0.0033448894261708904;155.0;0.12678147681541016;0.05952173588432958;0.003543533130306918;154.0;0.1276838692602394;0.06530154433402123;0.004268013130528394;155.0;0.13089807447860488;0.07467634900731353;0.005583013844118427;155.0;0.13789625356310253;0.09013295088738497;0.008133739592686165;161.0;0.15225637089347346;0.09581335520966024;0.009188434892439434;155.0;0.15711150297580212;0.05796800494168476;0.0033623396371285615;152.0;0.12454006329860608
0.044167043997944716;0.0019547151958246157;142.0;0.0953372979732156;12.0;0.051930535314868506;0.002700564747367584;145.0;0.09953281942540375;0.05814007815160867;0.0033853180295640647;148.0;0.103161696231818;0.04396419183814256;0.0019375858956238883;152.0;0.0949938521913892;0.03735678040640676;0.001399457514711513;142.0;0.09150769558185344;0.03339969538502772;0.0011186333490765489;144.0;0.08937093843601236;0.03112456098943701;0.0009715358578755451;146.0;0.08934059376998972;0.010401452388891258;0.00010851313218232624;157.0;0.07415395609847342;0.026961704150424207;0.0007288573071649388;137.0;0.08701268568434335;0.02468532055198944;0.0006110743776517419;148.0;0.08593096188604463;0.02425593571049288;0.0005901905622132144;153.0;0.08672445893678984;0.024773971046556702;0.0006158120677295601;151.0;0.08851910575913788;0.026040921996066196;0.0006805586032010983;152.0;0.0912451741002817;0.02929640552584686;0.0008614767608849512;155.0;0.0974980985509639;0.035265769000319296;0.001248579623625396;150.0;0.10690114848491727;0.028031034738619533;0.0007876239374265027;134.0;0.08662043478254126;0.251410177074119;0.06313986222200507;155.0;0.20527629138135953;0.25991340083860653;0.06744521386918567;148.0;0.21172436209462817;0.2398927285891615;0.057438827007567084;150.0;0.20252082161748378;0.2066376690685859;0.042642564465498425;149.0;0.18874612807932017;0.18630237921045864;0.034664536804360366;151.0;0.18172666577493932;0.17266509492966378;0.029786270277055743;151.0;0.17775540171102072;0.16275625249742864;0.026475457893839448;148.0;0.1749340801616936;0.008081058891769447;6.549801444332624e-05;158.0;0.06361709115614458;0.15470017834004568;0.023922259658751374;154.0;0.1723854199451122;0.14986777151579958;0.022453491651835984;153.0;0.16976413574348984;0.15045755435926036;0.02263533444374506;155.0;0.1704960296046643;0.17470741351322;0.0305348282670205;156.0;0.1823934933390287;0.20658699138837575;0.042711257180740876;154.0;0.2024493515177024;0.25431095916178253;0.06477571593408979;160.0;0.23500604418577875;0.25450894249344197;0.06486160201490453;156.0;0.2409700013017973;0.14753579165731956;0.021752794303104384;154.0;0.16955180357409258
0.13733604873167995;0.018917965468278737;159.0;0.1537656716559065;12.0;0.16379470639567612;0.02690497465711275;164.0;0.16347827754331037;0.19920391373102692;0.039791241842631685;157.0;0.17541156459282967;0.15283888692413233;0.023423888576259724;161.0;0.16067713582046358;0.12019047986084386;0.014485873306261242;155.0;0.1519249090885789;0.10398617409966093;0.010844663120977193;153.0;0.14772925266447204;0.09519556279599503;0.009089790179190985;154.0;0.14602208750210852;0.009222294756442503;8.532503173836248e-05;160.0;0.07072219369530652;0.08262086846421432;0.006845008003174247;149.0;0.1392264652502962;0.08176256740711156;0.006700150300912468;153.0;0.13725970430074536;0.08570865986416183;0.0073627659281846934;160.0;0.13920543894348014;0.09458310138005548;0.008966774350908592;153.0;0.14486051028078484;0.10429283711328483;0.010903141655336568;151.0;0.15144066016262034;0.11910862373215328;0.014220607162061265;152.0;0.16263629569760196;0.14379799356288017;0.020735379614532586;151.0;0.18065250854256495;0.08270004020721085;0.006859870729997393;146.0;0.13955556015004855;0.29725526350036413;0.08864783377776796;150.0;0.24923902274745888;0.30906940750874523;0.0958348022611526;142.0;0.2565597701833867;0.2838617641844311;0.08084062048569861;147.0;0.24573417893638483;0.24272097811653412;0.05910219368047646;147.0;0.22906997308443466;0.21645681203012349;0.04700556391151574;150.0;0.21936371415688607;0.19868309705387183;0.039601497117331456;148.0;0.2127920713233564;0.18601862365896363;0.034714190352182005;145.0;0.2077922947536087;0.007993497661108014;6.409852692598654e-05;155.0;0.06322632285684018;0.17428495217585677;0.03047003575932407;144.0;0.20290635459976367;0.17283794454916368;0.02996715192118006;148.0;0.20230907387329924;0.17903808801997134;0.03215238661377801;150.0;0.20613878310882813;0.20182012446297803;0.040851172699253174;140.0;0.21649563522530482;0.23206390071477068;0.054012537536967685;136.0;0.23217013723848604;0.2816321248452118;0.07954216907125997;133.0;0.26034228342070537;0.2881821932633038;0.08327867997587678;132.0;0.2645296356432959;0.16841598185930112;0.028454459272781726;147.0;0.20031439148145194
0.15420673223294754;0.02385112661638133;164.0;0.17899539846032256;12.0;0.17718767815951256;0.031485483232812;157.0;0.18300414075907692;0.20977948031261162;0.04414296799005912;155.0;0.18964807294087646;0.16626418923962294;0.027731613789197748;159.0;0.17833996149603268;0.1344449168363348;0.018133192593862587;160.0;0.17166130763368267;0.11851861277770952;0.014090969838475588;157.0;0.16792536227083962;0.1096421369145104;0.012057528573145605;156.0;0.16611641793491852;0.009061969391176377;8.238743464639029e-05;159.0;0.06669710286548443;0.09815289611274403;0.009662431352168498;150.0;0.16036014885902936;0.09849286095945513;0.009731258073177715;165.0;0.15884677639373848;0.10215621537095533;0.010467933323072741;164.0;0.16068657558418156;0.1115606318436213;0.012485890857529427;158.0;0.1667435829742993;0.12270015281708828;0.01510402325488425;155.0;0.17427905070519237;0.1391521279898033;0.019426577364288943;153.0;0.18621392721448246;0.1660689412595626;0.027667831281398398;149.0;0.20490244738337612;0.09682756492638857;0.009403600922818013;151.0;0.1595320829981653;0.19961470070570025;0.03982730503550456;151.0;0.22660951797213252;0.20509166956032335;0.041991211082840416;144.0;0.2253682701918268;0.19074073760004848;0.036349173915531316;144.0;0.2197449354466872;0.16604340625257338;0.02753177334603648;146.0;0.21067115049333127;0.14737010188134558;0.02171023911567539;148.0;0.20302509473983685;0.13404081010624438;0.01796716992037427;149.0;0.19733860447267093;0.1242850909465091;0.015450890935940688;153.0;0.19253938756378666;0.007074721349319564;5.021459776399604e-05;156.0;0.06263389340391617;0.11080885573712249;0.012276951562390365;156.0;0.18622070765208948;0.11821120402205587;0.013983709659766884;163.0;0.19011187031300836;0.13167887130235942;0.017355938973557396;162.0;0.1971626492081166;0.13710501014689852;0.01880576774637268;158.0;0.19830686209876863;0.1473242039272816;0.021718939806990998;150.0;0.2006589657878233;0.1705369624828638;0.02912183447431931;149.0;0.21091626651591064;0.1809188915612853;0.03279095442328421;148.0;0.21150828368356767;0.11016502721682087;0.012137894187126016;161.0;0.1840899769068465
0.08241678059453998;0.006806951110048749;161.0;0.13648797357284506;12.0;0.08523743036003863;0.007273642919614158;158.0;0.13432276280742927;0.08884038849310415;0.007903762531615923;162.0;0.13296831620314817;0.07961652497518173;0.006350657298599154;164.0;0.1289672074067229;0.07123933105163473;0.00508437381423425;160.0;0.12705262994014704;0.06610560827497952;0.004378530049434721;156.0;0.12503412807467432;0.06291125472167486;0.003964325727162482;153.0;0.12439598915800766;0.009374802592680304;8.817038898809913e-05;155.0;0.06553824928594863;0.059682759255568034;0.003566948586908961;159.0;0.12309381025286836;0.06092431388242156;0.0037156145618906893;172.0;0.12236641269958701;0.0615881355533064;0.0037970429703330765;167.0;0.12295759001759907;0.06512435980018799;0.004246934345142295;168.0;0.12411796986265348;0.07109612343098413;0.0050624471939039245;167.0;0.12853806566923734;0.07913647715064429;0.00627538230177964;166.0;0.1348769561849884;0.09235480016368176;0.00854600766392395;159.0;0.14527552349138992;0.057265789362660996;0.0032863710082524224;161.0;0.12144493163483354;0.14847831823348823;0.02211590768453382;137.0;0.1999476554416262;0.14516911111958192;0.021139882108892578;139.0;0.1973613489352955;0.14421270611563933;0.02086530736760963;134.0;0.19652592212638711;0.13311342700948323;0.017776961847575105;135.0;0.19076888861211785;0.11952453584898104;0.014332922929571756;142.0;0.18485537310651348;0.10676129633329666;0.011435308605577146;147.0;0.1794348035978475;0.09832189581087772;0.009698875608685079;156.0;0.17565627525842017;0.007754757978113364;6.032725852018332e-05;168.0;0.06675390360002552;0.09241310223037044;0.008567441189191179;149.0;0.17191113653216009;0.09702671545694481;0.009443815351957074;149.0;0.17608925793743252;0.10487190062238336;0.011031108962329936;153.0;0.18163637181473422;0.10813176737803326;0.011723481664545331;153.0;0.18145099898003753;0.11706608451689042;0.013735749058434507;152.0;0.1854268245309286;0.13269189473965096;0.017630002554444735;156.0;0.1955454975332547;0.12943740251629043;0.016766912019107814;159.0;0.19596562488069946;0.08822795280240563;0.0078095855064303586;153.0;0.16936578211992712
0.03829466737971176;0.0014692963336859625;162.0;0.10748169132458296;12.0;0.037608512780640146;0.0014170395962428612;168.0;0.10588057277497022;0.03819463779553477;0.0014608102902204743;173.0;0.10548529628021655;0.03530892234746516;0.001248496123405541;175.0;0.10330466848142844;0.03199315523648823;0.001026057147730885;169.0;0.10221097280145625;0.030035348524390493;0.0009041901252223303;167.0;0.0999637555060789;0.029413757150961076;0.0008673208369216758;162.0;0.10012960833004532;0.009332871465635769;8.736381811017474e-05;149.0;0.06509069495974536;0.02810986788941103;0.0007919465313242314;167.0;0.10179526005372472;0.028424687461621696;0.0008098289793877475;171.0;0.1026173500780371;0.02947527761374438;0.0008701262669936976;165.0;0.10400213610820454;0.030686266552209518;0.0009437081436837108;167.0;0.10440128046829775;0.0326258393305672;0.0010668061191014214;166.0;0.10600134863913628;0.035077824271782104;0.0012328498558038866;171.0;0.10927738700610906;0.039345245609767446;0.0015515723833474805;170.0;0.11486948508742006;0.02718117775674931;0.0007403587527177143;174.0;0.10128942372406766;0.12803870647927798;0.016443704910278596;142.0;0.17850576623715475;0.12495065694002638;0.01566239907590238;145.0;0.17823663830295075;0.12431671056663096;0.015505258764689238;144.0;0.17758140178910475;0.11418317970971406;0.013079573819928927;140.0;0.17331102530692302;0.1017630688420521;0.010388874447629466;145.0;0.16884551103493642;0.09029545041908582;0.008177023960067895;146.0;0.16467114740276062;0.08379832213940987;0.00704286309313998;157.0;0.16178870403984785;0.008066067353366771;6.520124776887704e-05;168.0;0.0666596482989452;0.0778804708350608;0.006083334976573902;152.0;0.15897595924748992;0.07849027727267324;0.006180041144791373;142.0;0.16121281281844274;0.0814726206411939;0.0066588135464282;139.0;0.1647338675045121;0.0839814885821327;0.0070758631714578895;140.0;0.1642672330962885;0.09121567601585082;0.008347398638142782;145.0;0.16857377756738132;0.10457715823496151;0.010972263725417953;147.0;0.17824489884734868;0.10784403678028177;0.01166781184351978;151.0;0.18199133726240335;0.07397754845487661;0.00548877772792345;150.0;0.1557841113416285
