rms_s1_ch1;var_s1_ch1;zcr_s1_ch1;wl_s1_ch1;rotule;rms_s1_ch2;var_s1_ch2;zcr_s1_ch2;wl_s1_ch2;rms_s1_ch3;var_s1_ch3;zcr_s1_ch3;wl_s1_ch3;rms_s1_ch4;var_s1_ch4;zcr_s1_ch4;wl_s1_ch4;rms_s1_ch5;var_s1_ch5;zcr_s1_ch5;wl_s1_ch5;rms_s1_ch6;var_s1_ch6;zcr_s1_ch6;wl_s1_ch6;rms_s1_ch7;var_s1_ch7;zcr_s1_ch7;wl_s1_ch7;rms_s1_ch8;var_s1_ch8;zcr_s1_ch8;wl_s1_ch8;rms_s1_ch9;var_s1_ch9;zcr_s1_ch9;wl_s1_ch9;rms_s1_ch10;var_s1_ch10;zcr_s1_ch10;wl_s1_ch10;rms_s1_ch11;var_s1_ch11;zcr_s1_ch11;wl_s1_ch11;rms_s1_ch12;var_s1_ch12;zcr_s1_ch12;wl_s1_ch12;rms_s1_ch13;var_s1_ch13;zcr_s1_ch13;wl_s1_ch13;rms_s1_ch14;var_s1_ch14;zcr_s1_ch14;wl_s1_ch14;rms_s1_ch15;var_s1_ch15;zcr_s1_ch15;wl_s1_ch15;rms_s1_ch16;var_s1_ch16;zcr_s1_ch16;wl_s1_ch16;rms_s2_ch1;var_s2_ch1;zcr_s2_ch1;wl_s2_ch1;rms_s2_ch2;var_s2_ch2;zcr_s2_ch2;wl_s2_ch2;rms_s2_ch3;var_s2_ch3;zcr_s2_ch3;wl_s2_ch3;rms_s2_ch4;var_s2_ch4;zcr_s2_ch4;wl_s2_ch4;rms_s2_ch5;var_s2_ch5;zcr_s2_ch5;wl_s2_ch5;rms_s2_ch6;var_s2_ch6;zcr_s2_ch6;wl_s2_ch6;rms_s2_ch7;var_s2_ch7;zcr_s2_ch7;wl_s2_ch7;rms_s2_ch8;var_s2_ch8;zcr_s2_ch8;wl_s2_ch8;rms_s2_ch9;var_s2_ch9;zcr_s2_ch9;wl_s2_ch9;rms_s2_ch10;var_s2_ch10;zcr_s2_ch10;wl_s2_ch10;rms_s2_ch11;var_s2_ch11;zcr_s2_ch11;wl_s2_ch11;rms_s2_ch12;var_s2_ch12;zcr_s2_ch12;wl_s2_ch12;rms_s2_ch13;var_s2_ch13;zcr_s2_ch13;wl_s2_ch13;rms_s2_ch14;var_s2_ch14;zcr_s2_ch14;wl_s2_ch14;rms_s2_ch15;var_s2_ch15;zcr_s2_ch15;wl_s2_ch15;rms_s2_ch16;var_s2_ch16;zcr_s2_ch16;wl_s2_ch16
0.05111373604307549;0.0026101035225192947;146.0;0.11862926461261716;12.0;0.0496828216923061;0.0024653962826675347;147.0;0.11530124463630272;0.04862480473321821;0.0023625962515536635;146.0;0.11339149169050255;0.049321679412311505;0.002430965913283127;151.0;0.11301115234095863;0.04828585796388507;0.0023304145607221426;148.0;0.11268035663910304;0.045919438768560764;0.002106674280097315;146.0;0.11096118780684322;0.04374517630449616;0.0019118457592121937;152.0;0.10963124818010037;0.04943456908509762;0.002441033397649393;154.0;0.11669955547081404;0.04508862931877092;0.002034134673999628;169.0;0.11025527598285415;0.04665096034064065;0.0021782297324382006;171.0;0.11088968299849382;0.05015570201860994;0.002518962680827241;170.0;0.1122518193005005;0.05804430801222545;0.003375326253154036;167.0;0.11724948808325525;0.06632318406454984;0.004406167183973615;163.0;0.12131735102896532;0.06717637819242508;0.004520996837499437;157.0;0.1249440566954685;0.053971544372495614;0.0029155724697180743;161.0;0.12038089095491648;0.04379093612287953;0.0019185118801001786;167.0;0.10939282489761558;0.044620921455020876;0.001988492082369632;141.0;0.09701908181964132;0.056032819476506256;0.0031316520758543397;134.0;0.09754277272260531;0.07047973760387695;0.004951203087672704;134.0;0.10284661830015296;0.08046032481078333;0.006449193121323884;142.0;0.10638658651134844;0.07937273081719641;0.006276012615477297;142.0;0.1065493990369916;0.06542372435495368;0.00426932449549731;141.0;0.10082110454795395;0.05243792715025795;0.0027473137344389592;133.0;0.09603036530014508;0.04014393138978771;0.0016108981621483943;135.0;0.09291328311407693;0.04057259571693307;0.0016487626843289267;148.0;0.09048794987778638;0.03996495391573935;0.001599708925465708;149.0;0.09038156572086291;0.04049385092436516;0.0016427387612483993;147.0;0.09126871068481794;0.04085647503817354;0.0016720062424507298;145.0;0.09130487596327529;0.041418861279916085;0.0017175939074023372;143.0;0.09177220017151051;0.042949305613017165;0.0018459914490192757;141.0;0.09312887227917992;0.04275273898012769;0.001828184644727366;139.0;0.09461413407632767;0.04083357805874827;0.0016695277987630302;149.0;0.08992636096078015
0.07976816632465557;0.00638256757388952;145.0;0.1604100697981819;12.0;0.07963595637367123;0.006362535742921958;146.0;0.1565497336177654;0.08452229389250314;0.007167364702670069;143.0;0.15362296437262346;0.09067139404603426;0.008247881063969177;144.0;0.1537820459909561;0.09196807010846704;0.008485580848007275;142.0;0.15297885537811576;0.08697037344876857;0.0075881336981710665;146.0;0.15085801694859954;0.08053573143468963;0.006506878525441892;150.0;0.14871984163270496;0.07551480385262206;0.005717676330441825;146.0;0.15702669844956116;0.07494856826094794;0.005635088493356067;163.0;0.15018660179448046;0.07807979730684717;0.006115815679791158;166.0;0.15254958119773857;0.08455054954528794;0.0071718707503163745;158.0;0.1571784986652034;0.097289851924313;0.009496216716205215;154.0;0.16600185041383497;0.10882681173551731;0.011881978022333596;151.0;0.1736024671334415;0.10564313916626683;0.011196828251179975;142.0;0.17397270208989693;0.08352168103618896;0.006994955099939308;155.0;0.16796053284933385;0.07303290400139748;0.005350719860610104;163.0;0.14787510671296852;0.06975287130943136;0.00487838802510105;143.0;0.15217025702035375;0.08783712969602911;0.00774003144851813;144.0;0.15528330136724103;0.11069118039997237;0.012293175019094427;145.0;0.1612188029605345;0.12595463848327615;0.015916391225526596;148.0;0.16525135284103878;0.12415446508484881;0.01546440053679643;150.0;0.16482466332911724;0.10014064983986454;0.010060252207712636;148.0;0.15573421552606415;0.08013874807923112;0.006443418217284982;142.0;0.14867830193132997;0.06225229849695516;0.003886105353943772;145.0;0.14433336957316545;0.06789244247623177;0.004624108958159011;138.0;0.14646326484221678;0.07253274417740967;0.005277567533869585;137.0;0.14941602985872576;0.08195934183879054;0.0067384427065939455;140.0;0.1549453455871473;0.0901257486403039;0.00814854635550458;136.0;0.15844182937708903;0.09404009950362709;0.008872443222968145;138.0;0.1602113515639286;0.08324772255773058;0.00695315925034913;138.0;0.16101179814327812;0.07260393000180422;0.005288332145816908;139.0;0.1552173218788135;0.06549569458622524;0.004303548171930338;144.0;0.14384122826181167
0.08137327664939373;0.006642012714899548;158.0;0.16456630789765034;12.0;0.082137194182322;0.006767579145666809;157.0;0.1611964793174746;0.08972151993975544;0.008075246187754966;150.0;0.16000522034132814;0.09710290638197691;0.009459015666344484;150.0;0.1605171850367452;0.09868058350960414;0.009769195825101691;146.0;0.15921875020288195;0.09367762573337031;0.00880407236698152;152.0;0.1566102128091738;0.08633889318212987;0.0074785868638103485;153.0;0.1536945064469633;0.07863087275478632;0.006201620948576032;154.0;0.16496815675208554;0.07812290410959453;0.006122500107153279;155.0;0.15719527187567392;0.08087131888243798;0.006560213375839183;155.0;0.15963717009098763;0.08636720834019546;0.007482586898787122;151.0;0.16495477044590606;0.09668199658320986;0.009375874174832793;151.0;0.17314762605257275;0.1064039071044932;0.011353848323914114;147.0;0.17996406187869937;0.10681121139260465;0.011437464990774356;154.0;0.18262634947456163;0.08959589871240176;0.00804699566884915;161.0;0.18016680165425544;0.07606629724726705;0.005803832151308692;155.0;0.1535210121002822;0.08838736000533788;0.007835052237957277;148.0;0.17786182893859304;0.09649818537233704;0.009328463015922151;145.0;0.17849121714803762;0.11217422415369763;0.012599645715957357;143.0;0.18171608961756283;0.12348106192514724;0.015273444088553802;140.0;0.1846331368713579;0.12193476911878429;0.014893443796068034;141.0;0.1839980174290232;0.10382423788732222;0.01079694987005399;142.0;0.17586515291538368;0.09008822076685459;0.008136231880757237;143.0;0.16762466059326706;0.08176785600280963;0.0067072181179142;158.0;0.1672020896449726;0.0784171581182592;0.006167949687606249;148.0;0.16133136373339488;0.08159465387377576;0.006679221432871818;151.0;0.16400640004590997;0.09015406951517362;0.008154425881865808;149.0;0.1699221033005174;0.09953104794903803;0.009938996868453306;145.0;0.17628537233170488;0.10675524628240031;0.011433968430622337;150.0;0.18212801172884813;0.10216656112725511;0.010472073475648849;155.0;0.18531621945577648;0.0933777428630939;0.008747091048448978;162.0;0.17862632516963303;0.0765219428706848;0.005871701913035776;151.0;0.15831028619973658
0.07097679379860902;0.005052947086885566;164.0;0.15753257514485092;12.0;0.06942997368441997;0.0048358920409283124;164.0;0.1531116337942767;0.07150608374585334;0.005129820440938098;153.0;0.15130851154006722;0.07391085357916213;0.00547987691871657;152.0;0.15069554227253745;0.07334205685267693;0.005396038485352884;148.0;0.14872114839552303;0.07110860116021046;0.005072511068790004;150.0;0.14655193893794546;0.06791513961696913;0.004627138343682514;152.0;0.14404337503045236;0.07251999664461825;0.0052735764040252545;155.0;0.15888386624628503;0.06673018467009731;0.004467382126019761;148.0;0.1486277417924255;0.06881297768095365;0.004750433555228615;146.0;0.15011373098302253;0.07216390808099764;0.005224542965104335;149.0;0.1540356987468849;0.07805630766388583;0.006112424678093433;152.0;0.16010149075253238;0.08633647587447443;0.007477426356083279;143.0;0.1666482567178658;0.09235797004739837;0.008556878412594969;154.0;0.1720797313411771;0.08301978748392312;0.006914504902825159;158.0;0.17195453273398065;0.06404915529520976;0.0041155474976415155;152.0;0.14483584815790518;0.0876057060970819;0.007699211537385841;142.0;0.16991283935182505;0.08855446226493931;0.007867108928537368;144.0;0.16852923717481322;0.09717388975170077;0.009472739272306279;139.0;0.17077110331959286;0.10652366922566876;0.011379788713055894;135.0;0.17429231222643313;0.10904893582366405;0.011926816721408065;131.0;0.17490780204553544;0.10049806747669089;0.010130428542942348;135.0;0.1684191920434228;0.08988188119383729;0.00810224791598884;139.0;0.15955987439539857;0.08028613077011115;0.006465988465870071;154.0;0.16062613030314288;0.07405258328317772;0.00549941855876655;154.0;0.1468008453327991;0.07491609837862624;0.005625887084063812;155.0;0.15019628125054688;0.08030677325609491;0.0064646557205755555;150.0;0.15725370195815663;0.08675144287225435;0.007540085926608683;144.0;0.1632622546278928;0.0919988170961186;0.008478463242728735;146.0;0.16855881644399287;0.09068230534332582;0.008242634718869345;153.0;0.17068820499232462;0.08470968104082668;0.00719638786025126;145.0;0.16531093049793524;0.07304441649557773;0.005351642519446908;153.0;0.1443970257945663
0.06193937207009657;0.0038440498517319016;161.0;0.14723528622088078;12.0;0.06127060971307647;0.0037620382241010976;160.0;0.14269213603974376;0.06368844815605271;0.004064635219381942;158.0;0.1409236911613857;0.06490748154775831;0.0042211776635393775;156.0;0.14001778318080196;0.06393886279315295;0.004096025706651433;157.0;0.13782773302043158;0.061771565138495306;0.0038230019679306292;155.0;0.1355367177052742;0.059345016138901446;0.0035294798767945513;157.0;0.13373869330111732;0.06484482860905992;0.004214811636699078;153.0;0.1486607766521103;0.05691843895147878;0.0032499062766481387;155.0;0.13544091729270705;0.05898086535681395;0.003490003579859706;159.0;0.13657891284675858;0.06269051702634182;0.0039428468743376585;164.0;0.14096378929059095;0.06820443114709886;0.004666928892079837;165.0;0.1469891497192813;0.07585207222252019;0.0057722484090277255;157.0;0.15483829197358295;0.07752472116531292;0.006029694728742714;153.0;0.15675581644438383;0.07104762173988342;0.005064230012895855;155.0;0.1598340963433352;0.054477506063270405;0.002977199016482437;158.0;0.13233840434396618;0.07032166133804822;0.004959948156784298;155.0;0.16331911437450994;0.07652871851709522;0.005873709357191957;154.0;0.16377337081057594;0.08607859023125833;0.007430087121918751;153.0;0.1673334190265127;0.09463096085740083;0.008979217181303489;149.0;0.16995492805656726;0.09696278489438463;0.009427893562368029;145.0;0.17027589618538297;0.08617071772695725;0.007447629147291221;146.0;0.16377098595378883;0.07238856241763343;0.0052564585916772795;151.0;0.15526353466351156;0.06307849630881562;0.003988947606048268;159.0;0.1590925726650547;0.061730045370239704;0.003823054384754919;158.0;0.14925383025095051;0.06532061046215971;0.004280722555606493;158.0;0.15401668542309566;0.07344647729979574;0.005411821414339081;158.0;0.16246577347537416;0.08010180682335073;0.006437280618586156;155.0;0.16572589308606508;0.0820988908360277;0.006762142184832792;153.0;0.16836595796910397;0.07267114644610555;0.005297072608253423;155.0;0.17015142779649273;0.06560983360972378;0.004317665459304074;151.0;0.16667208414153858;0.058744659288613145;0.003462191594238333;160.0;0.1449215778624766
0.04789616920793811;0.002301426539288891;160.0;0.13716787431677557;12.0;0.048794742473912495;0.0023887426509873466;157.0;0.13342054168899573;0.05315798685144736;0.002835016909921707;160.0;0.13353318579260035;0.05570528529663441;0.003113240512493146;156.0;0.13397906638254903;0.055468853184084274;0.0030868462408218493;160.0;0.13212202369158377;0.0523655392784369;0.0027510004766985183;157.0;0.12987602785349672;0.04833258979656059;0.0023435121809974938;156.0;0.1265113314408611;0.04845289406461361;0.0023553820733750726;157.0;0.13718228255587603;0.040995783951668245;0.0016851637972679198;143.0;0.12661314093611276;0.04233270241715348;0.001796999362121461;150.0;0.1288086735059654;0.0459723455885538;0.002119357995856114;159.0;0.1342482125688429;0.051381329032056236;0.0026478588382569447;161.0;0.1426459941646599;0.0571164379827051;0.003272754277267721;154.0;0.1498933659073182;0.05872879120711324;0.0034599195053508537;153.0;0.15275589567853945;0.05617974591775497;0.0031646375395542672;149.0;0.1560756748526461;0.039694158905061915;0.001580052682302697;147.0;0.12320641583725857;0.07182022111206085;0.005170242731365264;158.0;0.16758128036230655;0.0768048165773431;0.005916652398190185;149.0;0.16548894862755117;0.08351125513165804;0.006996944690954684;155.0;0.16581904964515032;0.08736570611361032;0.0076577617934114415;148.0;0.16560453751631093;0.0850198032435278;0.0072520311106447025;145.0;0.1630292442218594;0.07156590605626585;0.005138332374959097;150.0;0.15584344324871743;0.05857112594602549;0.003440454385827488;150.0;0.1479273447762142;0.06342526824067411;0.004032211541154915;159.0;0.1622809408362528;0.0529214585241346;0.0028035935730987426;167.0;0.14523352488077995;0.057128374161832515;0.0032676047352886125;171.0;0.15042878213984306;0.06477877032262029;0.004197014265679974;170.0;0.1604575258932349;0.07206872178712964;0.00519727134184775;170.0;0.1673880886553232;0.07561728000806785;0.005722169690791974;166.0;0.17229298317019906;0.07303837665345564;0.005346126593122559;167.0;0.17760286438820783;0.07028298642375533;0.004954621156358354;168.0;0.17656925511965194;0.04988451754917874;0.0024933822731352845;167.0;0.14069879270964433
0.04756627263419527;0.0022685279902014055;158.0;0.1330839679860732;12.0;0.04661651300056181;0.002179408849013474;148.0;0.12951270880734703;0.046573293548169276;0.0021759294050514174;151.0;0.12769274946402762;0.048072147824548835;0.0023184238878528507;143.0;0.1281598427817498;0.048019639661933976;0.0023134147182733602;142.0;0.12621684588059842;0.04473286808348011;0.0020075748993695713;139.0;0.12381097145446808;0.040803184026202026;0.0016703660151265738;144.0;0.11985300369517302;0.046439784407782916;0.002162975820227481;150.0;0.13171782628945677;0.03537162420954332;0.001255225841090703;133.0;0.11958238441339669;0.03744554091875838;0.0014067176086136964;135.0;0.12312376508722402;0.041208498687825404;0.0017032975158277543;142.0;0.1290201807012957;0.04775981869257262;0.0022871711647139054;149.0;0.13894813311462717;0.05497688262027583;0.0030300221421463366;144.0;0.14647670602932034;0.059023806512777825;0.0034912326714625274;150.0;0.14945160678406416;0.05476664449195254;0.003008665798335736;140.0;0.14927216931470774;0.03391805768581219;0.001154208442002326;140.0;0.11674246442450983;0.07275362408022565;0.005308474662709631;149.0;0.1675365202443474;0.07712490435061149;0.005963159303885367;139.0;0.16410097651896963;0.084834542076655;0.007213949128629917;149.0;0.1632769663123183;0.09089910090486933;0.008281477576335057;142.0;0.1638872540420918;0.08930225880457417;0.007995913051949707;139.0;0.16173477056161367;0.07497789159000814;0.005638621856942355;144.0;0.15364926123932912;0.061160215688156126;0.003751717144381112;138.0;0.14567844381797823;0.06258271523177888;0.003928610206105978;148.0;0.1578999161902938;0.05561438779093061;0.0031030605455125942;157.0;0.14196422270288173;0.06140347408785153;0.003782609844323759;154.0;0.14761695362274743;0.06956800759541379;0.004855502634407771;153.0;0.15769717446638418;0.07782842891930673;0.006076775826531817;150.0;0.1659809557405412;0.08406413955715114;0.007089746169633726;146.0;0.17054032812933137;0.08000452373573039;0.006421624177146665;154.0;0.17316232620449104;0.07026096489896935;0.004952734115834888;148.0;0.170127637290151;0.052009370864423046;0.002713695030361187;155.0;0.1383745120228025
0.05326809764415879;0.0028468622429255264;148.0;0.13464024043433082;12.0;0.05436900108748869;0.0029657894104363775;145.0;0.13247980901217016;0.05617250161313384;0.0031657024698034885;154.0;0.13044006197874689;0.05873958171038484;0.0034614389604399848;153.0;0.13086526053147107;0.05823918082098004;0.003402717605786185;150.0;0.12985043197130533;0.05457054865303469;0.0029876743939878784;151.0;0.12771815395223265;0.05005262088161667;0.002513487694734729;153.0;0.12472903979946921;0.05252570600279072;0.0027681072887372144;144.0;0.1360890245522752;0.04256542045643241;0.0018160664748740024;160.0;0.12667475599436226;0.045942389837446584;0.002115953104238812;158.0;0.1299138124819313;0.05064145650639834;0.00257083194731996;154.0;0.13536708256671734;0.058572298277925844;0.0034399017372652575;153.0;0.14507140694064347;0.06657096409759121;0.004444564737824077;149.0;0.153650452724367;0.06728567460341559;0.004541609893489893;154.0;0.15451900495292398;0.056392288097798976;0.0031904173952974906;153.0;0.14804584547534505;0.04027857859100288;0.0016259113839576281;163.0;0.12387035661613287;0.06185734005067731;0.0038375978931561657;145.0;0.16241059128267427;0.06629697395399972;0.00440746269259956;142.0;0.1605383774086436;0.07462174934324484;0.005585455895800075;142.0;0.16271761923212308;0.08077097142363011;0.0065439870498762605;139.0;0.16509437627079723;0.08028042088619707;0.006465403150498675;137.0;0.16528660007904508;0.06996543710441097;0.004910880726199553;141.0;0.15983875090200592;0.05945724641494376;0.003546062505998948;138.0;0.15337636543230054;0.05526860295958448;0.0030641813376043473;147.0;0.15549842931603852;0.05468394862709458;0.0029995679190049905;145.0;0.14998265375657693;0.05859829456086171;0.0034447612387062997;142.0;0.15308694548276536;0.06491008058179823;0.004227094754833651;149.0;0.15826444010733734;0.07265331374893126;0.005295778480920827;149.0;0.16236733407464343;0.07891067598133086;0.006247279715116849;145.0;0.1672181692338781;0.07385066860425822;0.005471467931386812;149.0;0.16869706569617837;0.065084815998314;0.004249710779928089;139.0;0.16487774057820767;0.05202939343657839;0.0027155497037626626;145.0;0.1475778076162589
0.05005925332943574;0.002514116674810579;140.0;0.13064508845633058;12.0;0.05123480187537658;0.002633454484107113;146.0;0.12893162399210026;0.05502735300575313;0.003037908676061426;152.0;0.1294439150637855;0.058524073962392155;0.003435986118770184;159.0;0.13141647201312473;0.05865086179236937;0.003450920979862614;159.0;0.13254742391967872;0.055663735118456806;0.003108494768829154;159.0;0.1300656916729645;0.05220084667266862;0.0027338031177426268;159.0;0.12668451685524815;0.04769098842930491;0.0022818867656904636;143.0;0.12955622936114947;0.043129000797872956;0.0018656941061127317;160.0;0.12982474233903296;0.046007542010702014;0.00212266996023321;162.0;0.1327600416202938;0.050838028560473356;0.0025918461079201937;158.0;0.13874214607869725;0.05899786203488769;0.003490216456811989;156.0;0.1489790353400299;0.0667185173834016;0.004463756035097107;150.0;0.158275673009114;0.06447303665931152;0.004168009081240342;148.0;0.1562814906186691;0.05024970710727765;0.0025336223971116714;158.0;0.14680221238231211;0.04046001045697947;0.001642056099261861;160.0;0.12678594694242326;0.06293957604631087;0.003973387195617623;147.0;0.16129944488838796;0.06234313553475484;0.003899374101476735;151.0;0.15811231050063984;0.0666717453722524;0.004459368335878651;147.0;0.15867009762625092;0.0706862616842745;0.005012669603363061;145.0;0.16005897134541056;0.07050257926595216;0.004986625823812915;143.0;0.15956040263046092;0.0636328673427476;0.0040622559577334705;152.0;0.15670527631467182;0.05555950946711938;0.003096874007355187;150.0;0.15101713234198863;0.053894124478856754;0.002914033973509729;158.0;0.15328880230315317;0.048644551279134855;0.0023739077736001945;158.0;0.14842133955031586;0.051290511695550545;0.0026391701567197406;155.0;0.15194620816923082;0.058388577295317434;0.0034198295473082665;161.0;0.15875494746531182;0.06623918412018755;0.004401041316021958;164.0;0.16363064022320273;0.07016636005560106;0.004938559031902991;160.0;0.16715365424661396;0.06804161774460273;0.004644782531839737;157.0;0.169759485253977;0.06538466443382998;0.004289143354657079;152.0;0.1666353084877377;0.04666103833294095;0.0021840941109089506;155.0;0.14600738030509594
0.034690474601358365;0.0012069768112309886;154.0;0.09689582265109373;12.0;0.034997869256457904;0.0012288197903188164;164.0;0.09542185204907917;0.03730188297255219;0.0013959142307512985;153.0;0.09747613666754136;0.03942656724082606;0.001559531976533946;154.0;0.09932070527821439;0.03975256617270795;0.0015853834841005855;157.0;0.10144433425180156;0.037678375036126845;0.0014242093949815785;158.0;0.09743264192117568;0.036089972409808754;0.001306559006570468;155.0;0.09417612957560849;0.032511141430760115;0.0010602334315430056;157.0;0.09369731549410378;0.027056857925004608;0.000734441696361682;160.0;0.09327304372990164;0.02811377561422552;0.0007929482907208428;163.0;0.09509914672284016;0.03097604171309719;0.0009626028996104378;158.0;0.09969791731599746;0.03603596759903272;0.001302633148592613;157.0;0.10598860445120398;0.04207409446823154;0.001775387419978039;157.0;0.11311676296837488;0.04177871603123715;0.0017504075541277815;146.0;0.1141456011907531;0.033410525725791;0.001119911353428828;141.0;0.10868622048752093;0.02550790943238612;0.000652774869840017;161.0;0.09173156603845972;0.049383047763962185;0.002446615399749039;152.0;0.12356130342605912;0.04686692614799099;0.0022036608187338625;155.0;0.1213968450000272;0.04706875398392165;0.0022226792438514776;160.0;0.12086743765890123;0.04920115318480042;0.002428659001920818;157.0;0.12203919371489502;0.04908980827719203;0.0024176806252917482;155.0;0.1210450022222153;0.04361974195845939;0.0019088953368064413;156.0;0.11793603537633779;0.03746879213281392;0.0014084483081013178;155.0;0.11214185499249145;0.04098536637970242;0.0016852874444349003;166.0;0.11611859381624559;0.033667896333706815;0.0011372240501517853;160.0;0.10757261300535714;0.03636784844472966;0.001326831202380426;157.0;0.1108514655003382;0.042416277432066794;0.0018047578619897755;150.0;0.11613033584504182;0.04810613370858821;0.0023216919682536885;151.0;0.12103985511288873;0.05054868945028563;0.0025634840538010938;146.0;0.12218692852009079;0.05031820486997063;0.0025400653787402694;152.0;0.1259887431148411;0.048730553868516886;0.002382396479580321;163.0;0.12528848608681942;0.03163754217249466;0.0010042071778411815;153.0;0.10528155468157237
0.014094599870851418;0.0001992032342211622;152.0;0.05970689787497913;12.0;0.014640387952686991;0.00021489893392969664;160.0;0.05776260260683622;0.014905868797470129;0.00022285913125750446;152.0;0.057057573585644665;0.015018361214570994;0.00022608485171271334;140.0;0.0564731416922177;0.014496734644545269;0.00021075530252843438;146.0;0.05906712330187376;0.013570827298488132;0.0001846351152050421;153.0;0.05562789679451958;0.013283946386398134;0.0001769803769004108;150.0;0.05502081863365691;0.014667732189601749;0.00021570366689703538;154.0;0.05853165094463305;0.0077518982686586016;6.028564389812668e-05;154.0;0.05282189653425599;0.00816533492281157;6.688139900936193e-05;149.0;0.05497202471371828;0.007632901357063859;5.844031751154443e-05;148.0;0.05500168203312874;0.00800229920081552;6.423094679462313e-05;144.0;0.05542301288954134;0.008623797877791262;7.449086319940123e-05;156.0;0.05774626464793118;0.010850536526963847;0.0001175714500100099;137.0;0.06464266091670089;0.011557666939902525;0.0001336104756941666;140.0;0.06387851981345728;0.007636644281050671;5.850774689285489e-05;162.0;0.05319233319151687;0.011077731851310524;0.00012283150825273848;156.0;0.060763736507246716;0.012205795631761098;0.00014865065404127652;154.0;0.059469340496161906;0.013212365063642881;0.00017457651263290663;157.0;0.06266997958181454;0.013986803741372235;0.00019577270145569668;160.0;0.06410246347891238;0.013056472729960225;0.00017073688828219297;158.0;0.0648455857270713;0.011055841648528157;0.0001224321749932916;156.0;0.06295976366688474;0.010018450771515804;0.0001006416706663682;151.0;0.06003875243199892;0.009951225090668044;9.846993592865834e-05;173.0;0.06042086889314575;0.009032577437391496;8.185027262042432e-05;160.0;0.054614215551169194;0.009894089992188944;9.821407943315072e-05;161.0;0.053769113760491836;0.010387649319623134;0.00010825655577166827;154.0;0.05403564284080166;0.01175671610874039;0.0001386670480569484;150.0;0.05327280223115243;0.011779014560725977;0.0001392001655138974;141.0;0.053936991228098356;0.0098683248109267;9.76781752914072e-05;157.0;0.055767528698847234;0.009634108258532849;9.295553583373793e-05;167.0;0.055492127825391833;0.008549481710205533;7.331878742167764e-05;155.0;0.052733296511183976
0.02495062110632025;0.0006234598441553528;158.0;0.08659047807607317;12.0;0.025859806100711757;0.0006694907510698468;162.0;0.08355130397066449;0.02896715252097925;0.0008396819608517528;163.0;0.08362359455963347;0.031150020236707158;0.000971018955602215;151.0;0.08390894953428363;0.03141815715645695;0.0009874745608573082;155.0;0.08515668732860347;0.030748831292699126;0.0009453307326085113;160.0;0.08270126143533463;0.02964154214882969;0.0008780262901838949;162.0;0.08271595669004174;0.023482393662361378;0.0005525143773609011;157.0;0.08388374526146947;0.02759283216326464;0.00076197059590705;157.0;0.07990584153370889;0.0279610055542928;0.0007826586430991814;157.0;0.08145477046254518;0.02927255489294683;0.0008580173171519161;158.0;0.08089188858510465;0.03358890467230064;0.0011302434897129266;159.0;0.08428101370885124;0.03704674377488062;0.0013754203444082571;165.0;0.08696864691870533;0.03475815703383858;0.0012108293314932609;153.0;0.08754627744647446;0.0275587722701445;0.0007614364965170992;158.0;0.08603704602842897;0.02685670659947807;0.0007216801142381463;165.0;0.07881466685458052;0.024143820294192923;0.0005845768403730852;152.0;0.07477170373833421;0.023335392122575207;0.0005461880683648491;150.0;0.07178540896072276;0.023506463870132572;0.000554280561467669;150.0;0.0727356459661469;0.023426872879832816;0.0005505528775521587;159.0;0.0731347471826855;0.023343553406710543;0.0005466630649378793;154.0;0.07334907195550329;0.023358323891263;0.0005473794268544453;156.0;0.07215012360584075;0.02376326829933078;0.0005665088698496326;146.0;0.07078112888707602;0.02387252530209838;0.0005715790334076834;159.0;0.07345080452228145;0.022853209199418877;0.0005239634978721246;167.0;0.06912481722447694;0.02301469035424605;0.0005313739152602113;166.0;0.06911819919424861;0.022866031507364645;0.0005245189954687313;164.0;0.07037100489382059;0.02340048890909038;0.0005493689828161188;159.0;0.07049789906770684;0.023341425598685215;0.0005466016180104899;160.0;0.07062250581961495;0.02445105469682137;0.0005997944720740791;167.0;0.0724059326124129;0.02489136115551711;0.0006214517185613716;173.0;0.07207912183283584;0.022761198677087528;0.0005197610649203773;165.0;0.06760726058803561
0.05448265696567413;0.0029769753536954243;157.0;0.13364257442589636;12.0;0.05603136756450641;0.003148318445180227;158.0;0.13158222554464666;0.061126364901626005;0.003746415054176241;159.0;0.13238114679076818;0.06637835437823508;0.004418006906582695;155.0;0.1333954190856673;0.06773926950734138;0.004601092993594242;155.0;0.13365549042744293;0.06412009776896743;0.004123237475790734;156.0;0.13096419875007262;0.05934324827778817;0.0035320192666510953;153.0;0.12797357938761772;0.05206549794905547;0.0027180736503737753;153.0;0.13087676953684693;0.05612315631147572;0.0031600950335972013;143.0;0.12186479044365962;0.0593425209454818;0.0035330483622845587;149.0;0.12373834156503383;0.06593126668073684;0.0043609028833589145;146.0;0.1284181172654508;0.07622765609705086;0.005829359998790435;151.0;0.13765847274144072;0.09112123998630707;0.00832969411293409;153.0;0.14913615747119044;0.09287526562448346;0.008651723032451942;153.0;0.152079697206682;0.06692101363455709;0.004491057823038325;156.0;0.14101508542971544;0.0538912060418704;0.0029136996258748112;149.0;0.12057312599527878;0.05939683740119474;0.0035395130632651347;159.0;0.12302400912593135;0.06599845536744539;0.004367945810045966;162.0;0.12345594483595194;0.07356061542209706;0.005421083803512262;159.0;0.12561759711476764;0.07958179733592634;0.006341120936372542;166.0;0.12930728500511815;0.07975005928643773;0.006367399780747067;159.0;0.1291594849006656;0.0711582452088941;0.005072517763102945;158.0;0.1241843337047497;0.0622274644157745;0.003881923897042797;154.0;0.11711753232052764;0.04881624895528321;0.002390760507987664;151.0;0.11647170512353862;0.0575568381220245;0.003322253900092439;162.0;0.1131547596462638;0.062278370797057135;0.003889805255671944;158.0;0.11859887479538311;0.06966941407698929;0.00486686252028668;154.0;0.1262880465111978;0.0773036558202655;0.005990987278048017;151.0;0.1301702569267186;0.07694889318314316;0.005936491910088962;157.0;0.12722257602268314;0.060515815134012496;0.003674086023488917;162.0;0.12290144055388988;0.04744976911518802;0.0022580091199570756;161.0;0.11864534049376245;0.05528145582494152;0.003064610806291795;163.0;0.10963845058295109
0.07996806532208267;0.006409747724250938;145.0;0.1637484239037143;12.0;0.08216341239633564;0.006766183645100903;151.0;0.16026099689266293;0.08471616911531996;0.007192970751018733;152.0;0.1571279305379104;0.08624841894915648;0.007457841964250721;151.0;0.15568443993998263;0.08643277264259819;0.007489612617317368;153.0;0.15472653726735758;0.08297829270903398;0.006901538674578622;158.0;0.15287647128703089;0.07792804077684252;0.006085626258555889;155.0;0.14992343963242852;0.07931634162156116;0.00630448774383841;147.0;0.16231625668107058;0.0699453798829617;0.004904333281380728;135.0;0.14874244833325417;0.07275739298199366;0.005306792140892061;140.0;0.15050057934019787;0.07967815446966794;0.006365802685518137;145.0;0.15752663104030698;0.08959651356813793;0.008049583935568918;147.0;0.16887076817414548;0.10466505826038525;0.010986139155325817;150.0;0.1815356622878039;0.10773584673927188;0.011639557121221524;145.0;0.1841810925093035;0.08211278446894862;0.00676216054354833;157.0;0.17219780377380225;0.06698733002264921;0.00449844912310355;138.0;0.14588440194033975;0.07687210806114865;0.005928704962686247;156.0;0.16542173919011183;0.08330965700686217;0.006963261945423413;154.0;0.1648718031439147;0.08727624723191925;0.007642107453776854;149.0;0.16451883413401866;0.09161173157165661;0.0084200710778055;150.0;0.16625810072222236;0.09185713748604074;0.008465134205991721;149.0;0.16483711044724417;0.08294862176174143;0.006903033038987365;150.0;0.15939040136518443;0.07314822771854983;0.005368184389021716;150.0;0.15195041881062252;0.0643531529937982;0.004154860827324835;150.0;0.15490291985855223;0.07065142197615326;0.005007875558441485;152.0;0.14734979207760512;0.07625254909196812;0.0058334773878090445;151.0;0.1522826491841242;0.08580614241243274;0.00738676104574801;149.0;0.16113043698402604;0.09555976092810875;0.009161353305208673;145.0;0.16546412154506043;0.09806032455900661;0.009647214317941183;152.0;0.1658130971780266;0.08539830164743259;0.007315980458426701;151.0;0.165846069132373;0.0710322253127199;0.005062071646074823;152.0;0.16278897533580178;0.067005683738055;0.004504440915687733;151.0;0.14398271938459287
0.09304873324508084;0.008672250281091433;153.0;0.17785614828276639;12.0;0.09388657698058112;0.00882614051312435;162.0;0.1726797299661474;0.09397940630652903;0.008839878426181759;162.0;0.16570859384048722;0.09356412730028098;0.008755047727113215;159.0;0.16144230740377635;0.09299732162610072;0.00865098301654706;161.0;0.15915114782138534;0.089705317651656;0.008052347157260198;164.0;0.15641134984206684;0.08444859975100316;0.0071342020302858295;161.0;0.15448443927276018;0.09162798097409085;0.008410969563932879;156.0;0.17632635925734266;0.06963090608925147;0.004862534211186601;162.0;0.1582291790075197;0.07139037367651767;0.0051113074375146806;168.0;0.1598750914137261;0.07610077698405582;0.005805954903816917;171.0;0.16463563887278387;0.0837805323608368;0.00703686467488774;170.0;0.17371516858526137;0.09457792964113923;0.008967652926609228;167.0;0.1819585614317909;0.09815954772277098;0.009655757930671343;164.0;0.1845695840564888;0.08272794739203616;0.006861547010192954;166.0;0.17751985757852715;0.06678285731250562;0.00447249976310431;160.0;0.15404964183252837;0.08209144174412075;0.006760091200357135;142.0;0.1837253530256162;0.0788242128659388;0.006232164846094161;143.0;0.17602208583522733;0.07198922020023668;0.00519450690810169;145.0;0.16955298051864728;0.07027705541830039;0.004947429673323613;145.0;0.1671072393456401;0.07017346135906029;0.004929307890511028;150.0;0.1652067176389311;0.0667496035545876;0.004465029621552309;150.0;0.1624909132117425;0.06246514567149305;0.003910493892496627;144.0;0.15969822436351852;0.0717555625573917;0.005163826005563476;136.0;0.17308946197951264;0.06322873563534877;0.004005473234615395;137.0;0.15907440615721383;0.06717512436862635;0.004519588921692419;140.0;0.16204609308124188;0.07464743827374422;0.005577206947213922;140.0;0.1690288174430743;0.08175303581927205;0.006689857365647872;144.0;0.172654169946293;0.08750633575904276;0.007671495371113922;157.0;0.1778241214804931;0.08622969487435357;0.007456894737810312;149.0;0.1833132378748969;0.07719535531636451;0.005978428811862032;152.0;0.1800106695205443;0.059399116696279536;0.003534733961629445;138.0;0.15627240357505212
0.08987944145375518;0.008104706296383567;144.0;0.17456778632863673;12.0;0.08829834691093359;0.00782207899061132;150.0;0.17005983443569347;0.0878115456451072;0.0077359279127806446;149.0;0.1638942976241139;0.08920929825188398;0.007984214646049792;142.0;0.16013635489146996;0.08951846816404145;0.008038801903314156;142.0;0.15857953114227807;0.0855700618084047;0.007345704247521063;142.0;0.15487902083442534;0.0800903813012952;0.006434891862783966;139.0;0.15214986001783107;0.08751083409634275;0.007683117935665409;153.0;0.1724820035492752;0.06177568803504;0.0038285121912691286;149.0;0.1541989910764874;0.06439620450322187;0.004160390194343495;151.0;0.15571445171050607;0.06870344079489446;0.004735582573172621;149.0;0.1590246412562176;0.07669930213020928;0.005901852804056703;152.0;0.16511004184640657;0.08638560161440635;0.007486037171994964;154.0;0.1710238855236666;0.08816175647684774;0.0077968694376661235;148.0;0.17404869420806615;0.0757785856011372;0.005761138923604709;153.0;0.17349129731488236;0.05965206272157613;0.0035698963791292756;150.0;0.15213932907672456;0.0845328999268159;0.007168175150527737;148.0;0.17942626727287941;0.07973710425696971;0.006376424765273667;148.0;0.1708573019967127;0.07322766061982008;0.005374231048935929;146.0;0.16357651495603653;0.07215417820349176;0.005217845880412213;145.0;0.16154487673882012;0.07088981654410655;0.005035411322770218;154.0;0.16070043008246987;0.06526980307119247;0.004267057250876771;151.0;0.15773028498838584;0.059307170550673236;0.003522961902015417;151.0;0.15474751994090646;0.07273822012541162;0.005306735939833089;135.0;0.16779907461217758;0.05644478124100943;0.0031942337226987067;148.0;0.15294064144033945;0.061861753156961734;0.00383713475840295;144.0;0.1567415718559091;0.07001761937748184;0.004916016058487697;145.0;0.16464193775573244;0.0778856340156871;0.0060843315917044625;150.0;0.1704681284447985;0.08363468604778113;0.007016291194048474;156.0;0.17668100648603005;0.08020630622719405;0.0064538479789365295;144.0;0.1804696703635076;0.07140994468528798;0.005114534677836024;144.0;0.17538084617620534;0.05262471137336249;0.0027758679588077463;150.0;0.14955637046502182
0.09048506400709629;0.008182631300899863;129.0;0.1707099720267338;12.0;0.08953235518419897;0.00801254675383153;135.0;0.1683802491159087;0.08771072821381981;0.007688858568146518;140.0;0.163392974886416;0.08661906374077616;0.007499929658500229;137.0;0.15895704387072346;0.08632693355160459;0.007446484397315177;139.0;0.15725898248560394;0.08332171043123796;0.006939596708273791;139.0;0.15339560038185138;0.07943777275814261;0.0063027867283154465;136.0;0.14942585613434403;0.08465687418678926;0.00715809267528751;137.0;0.16468121175270647;0.06052823823407739;0.0036722488506459776;143.0;0.14744960870169524;0.0617819279670852;0.003825413924150102;140.0;0.14806575808573053;0.06440788310467334;0.0041569076184060985;137.0;0.15103219691069714;0.07048107473184062;0.004974174891866433;140.0;0.1561479933016322;0.07594255884052636;0.005775172825480368;138.0;0.16166636872386025;0.07742856447351634;0.006003535093056176;126.0;0.16617051300342917;0.07439826652023646;0.005547314111900284;134.0;0.1758439655628991;0.05946586164514821;0.0035455652361927703;143.0;0.1459637913258182;0.08614746263464017;0.007440875960097433;152.0;0.17961054168348436;0.08195490961422752;0.006733586058904157;151.0;0.17367654780636832;0.07789345162994132;0.006084215947604365;149.0;0.16698396491682482;0.0767220065960562;0.005904070345546329;143.0;0.1652806946702778;0.0729182209869423;0.005333090149749917;149.0;0.16296853105441547;0.06411396778246232;0.004122500886886902;153.0;0.15767961687160553;0.055365046570331054;0.0030725879412788902;161.0;0.15182253650888392;0.07212387465530941;0.005216189560937422;146.0;0.16489629394219213;0.05255176076559372;0.002761293760380556;167.0;0.14755626074404565;0.058522352705604005;0.003424173922687045;165.0;0.15249526409550948;0.0672795257061776;0.004523907681639726;165.0;0.16008676813769795;0.0766680071189853;0.005882370303946481;158.0;0.16818245917929464;0.08291919836965718;0.0068845123761512245;157.0;0.17465290002027378;0.07990710301024946;0.006395160005378885;150.0;0.18038919545358867;0.07622731998937406;0.005825225699655896;153.0;0.179163954225422;0.04900815745546975;0.00240332776831824;170.0;0.14402764188800957
0.08685329419890196;0.007564345376950898;145.0;0.16910797747733122;12.0;0.08551844125518368;0.007333599503988594;148.0;0.16637505163469418;0.08396922532488232;0.007071755933526166;159.0;0.16220863434790417;0.08199912002283034;0.006744080220494111;158.0;0.15915808098329656;0.08105799012168176;0.00659053309153975;153.0;0.1579119672661455;0.07852639841159711;0.006185202067343025;156.0;0.1536840402505551;0.07626587188551869;0.00583303251000955;158.0;0.14976232569991696;0.0814770279641121;0.006656311328427997;147.0;0.16423942060614183;0.06628394679869183;0.00440772465573558;149.0;0.14734202567901866;0.06821464852311719;0.004668018212889427;151.0;0.14828257261824948;0.07216037902809717;0.005223840400859245;151.0;0.15140061641597455;0.0795107513655739;0.0063426201277540055;156.0;0.15772836428051554;0.08896522318884881;0.00794069932469982;152.0;0.16582344536891588;0.09335863520634013;0.008744271648476468;140.0;0.17179296174926267;0.0852688278819652;0.00729354983695442;145.0;0.18112070513911382;0.06430352507463917;0.004148315005201872;150.0;0.14467467250873442;0.09003567173318931;0.008125882181591382;150.0;0.19672315569615365;0.0849876610750825;0.007233461659946074;154.0;0.18933379785383836;0.08055545825351079;0.006494293675238631;158.0;0.18031309568454898;0.08042857828926384;0.00647059409457444;155.0;0.17681579102435402;0.0773128750861816;0.005979183553082353;154.0;0.17279996479155793;0.06882330389466411;0.00473682305497333;160.0;0.16555095250078392;0.05988187271181471;0.0035872907702798273;166.0;0.1574178820858705;0.07465273665352652;0.005584133243846225;145.0;0.17500485215518527;0.0576757553448805;0.0033308064566272408;170.0;0.1537837753102934;0.06104637193268873;0.003732795405522662;166.0;0.1585637389454816;0.06689645176813168;0.004483018615050682;167.0;0.16539019058170767;0.07199348617988531;0.005193138440715776;161.0;0.17102307386016252;0.07550557826883975;0.005711061274034863;162.0;0.17493439913567743;0.07575638495939656;0.0057481027043243095;161.0;0.18061118681893948;0.07582194530376557;0.005758077062844579;149.0;0.1793920704229939;0.054946549982507836;0.0030228164811799667;169.0;0.15015562703624188
0.071610552067448;0.005129867802515966;149.0;0.16111835559022938;12.0;0.06968006801162592;0.004856623243541062;153.0;0.15706430578884772;0.07081866822613363;0.00501644194064119;161.0;0.15612784852444922;0.07184277288784151;0.005157846436741884;157.0;0.15692549966414224;0.07103468283705001;0.0050419465859532836;155.0;0.157535658252961;0.06814968438662204;0.004641661729300306;159.0;0.1545632725435985;0.0656836880799643;0.004311897846195019;158.0;0.1508256676886383;0.07156424590750504;0.005123222348091117;154.0;0.16164724898925467;0.06051004850465536;0.003666267999119703;143.0;0.14474629720463444;0.06274225110984803;0.003940318675952831;146.0;0.14581780357236415;0.0659925207181745;0.004357747416278881;146.0;0.14899936903931937;0.07287292699050091;0.005317154768146076;156.0;0.15508977826707418;0.08263610031397539;0.006834658553041728;151.0;0.1617087233478267;0.08665321995135979;0.007519094085738647;145.0;0.1655592408753858;0.0767239200385137;0.005898872074759607;153.0;0.17230999409325157;0.058711877113795344;0.003450991402264478;146.0;0.14283231293522106;0.09082766750183287;0.008276658630761333;142.0;0.19743997465317556;0.08833557614031144;0.007828407468176413;147.0;0.19250794421120632;0.08547918873375175;0.007330589585644571;146.0;0.18407597530003544;0.08707922726582312;0.007607231542237121;153.0;0.18096083771897606;0.08587038159005775;0.007397418112027422;148.0;0.17717364746474867;0.07686954084262518;0.005927986678663631;153.0;0.1689266071222017;0.06713860236572013;0.00452229017740682;158.0;0.15947068352810145;0.07542596899178146;0.005707638189357942;140.0;0.1743388647762666;0.06018564024512805;0.0036337619192432264;153.0;0.15063264291061587;0.06213271274400837;0.003872637106217934;148.0;0.15380924327548165;0.06796616241355684;0.004633771929721087;159.0;0.16149955326552562;0.07220190087231645;0.005229935729946201;158.0;0.16730469254569613;0.07270566514726783;0.00530326572280447;153.0;0.16966954801993528;0.07296673947646357;0.005341267517943109;152.0;0.17286277850822582;0.0751666218722133;0.0056682716538673785;134.0;0.17383313190669866;0.058602420933017464;0.0034452553735041525;149.0;0.14779826869831636
0.05779620812741976;0.003351065570843395;149.0;0.1329531200794728;12.0;0.05846069666528017;0.00342785855869118;151.0;0.13065363461936613;0.062259047672155066;0.0038883509106135295;149.0;0.132801828351756;0.06613750292297671;0.004388214272379929;150.0;0.13451452916572887;0.06600679962433588;0.004370698921005375;149.0;0.13508183037253033;0.061830376775553024;0.0038346260815077873;149.0;0.13241266326774506;0.05695062366688948;0.003253135979090549;146.0;0.12796421373651354;0.05691975456922755;0.003250396656612653;150.0;0.13239001033018724;0.04670538980124056;0.0021874188736265197;144.0;0.11863837269035353;0.04780029878525055;0.002291504923559041;144.0;0.1191878993835293;0.048654206705456005;0.002374231941711008;145.0;0.12154993201038172;0.05247114532247711;0.002761130963679893;151.0;0.12620369054068345;0.05864433591395174;0.0034498922747284444;145.0;0.13026026336052343;0.06436207818178172;0.004155923197644968;153.0;0.13507219351916167;0.05822654339180047;0.0034012827384911305;151.0;0.13760488864404946;0.046107463991532094;0.0021319395053003287;144.0;0.11727973908314765;0.06611223033624197;0.0043821426676085365;141.0;0.1410764291511909;0.06493578497623112;0.00422173463200927;130.0;0.1393955051864528;0.06516318912566627;0.004252296997184426;131.0;0.13547480806505224;0.06733765052452527;0.004540509922220417;138.0;0.13509768557399005;0.0666410923915603;0.00444659541960324;137.0;0.13301890386503548;0.05863649100694804;0.0034420500565570775;141.0;0.12629028212239307;0.050191912426622985;0.002521847942722853;136.0;0.11947315316303686;0.05488972522044995;0.003018746021064599;153.0;0.12665502294628947;0.042291599454961845;0.0017894340463982408;131.0;0.11088422802383317;0.04389921641567743;0.0019288702679290009;132.0;0.11296166960104695;0.049982696622616715;0.0025015198000345987;142.0;0.11874094940933465;0.05499048059897402;0.0030286392655161573;140.0;0.12431798993804509;0.05539349002167779;0.0030741640028376835;139.0;0.12649895435048322;0.05349920826817972;0.0028650143725251;135.0;0.12832241317839926;0.05749853358226553;0.003310181069211498;143.0;0.1323100351392435;0.04170082172389593;0.0017405251389144875;128.0;0.1092017010183201
0.0694127801166101;0.0048192413575496185;156.0;0.14114920456114582;12.0;0.07116856562599867;0.00506380135263601;156.0;0.14052787062941988;0.07764962204162956;0.006021850485211798;152.0;0.143034508097878;0.08493516406793025;0.007195947818376667;152.0;0.14629439555643753;0.08732563896841797;0.007599186029278094;149.0;0.14761091809652285;0.08267181896122901;0.0068047187612860745;152.0;0.14537673074677676;0.07682433554945144;0.0058848337093232745;154.0;0.1421461966164545;0.06790973043812154;0.004618812834733687;154.0;0.1397246345071869;0.06760110860591076;0.004569933280434209;159.0;0.13574249755953713;0.07048530255978866;0.004970839742087495;158.0;0.13656614272582368;0.07516560750170621;0.005655020218394244;168.0;0.14040232577971193;0.08356223780481112;0.006996024610319124;165.0;0.15022196275437785;0.0929653995828358;0.00866225522477992;157.0;0.16137057870356075;0.09788396115978436;0.009606898813497123;164.0;0.1669070937985113;0.08525509786693367;0.007287494512562952;150.0;0.15960033472948168;0.06660523509056418;0.004434788338802294;160.0;0.1342447655771134;0.014910901672021514;0.00022177978693549872;155.0;0.059619846298965384;0.014698512543818789;0.00021308503445930825;144.0;0.0591432558342508;0.017196081653211355;0.00029222062796179014;139.0;0.06009243596910117;0.020067705652488128;0.0003977776518304583;134.0;0.06110721236467781;0.0215076771984919;0.0004572631903732626;139.0;0.06350457494527167;0.018913167971156265;0.00035316632225617625;137.0;0.06136808469209689;0.015602155451048396;0.00024079789304066104;140.0;0.061245652829950634;0.013932664819499146;0.00019421001106582195;161.0;0.05856241033542739;0.012942693953460645;0.00016728417672078573;143.0;0.058240074499759736;0.013386532334717852;0.00017892230703921993;145.0;0.059764693863228975;0.014241746009026987;0.0002023774066065062;148.0;0.05902981439636826;0.01488893137396957;0.0002212298793392812;147.0;0.05895840357633791;0.015534258500662047;0.0002414657692081783;152.0;0.06052457999716971;0.014637805381119926;0.00021433247275880952;140.0;0.06227992027657002;0.014463100368858919;0.0002094985884485854;155.0;0.06172159609904268;0.012986160410750524;0.00016850530989988955;142.0;0.0591873386630308
0.12793590447230996;0.016414789187951823;155.0;0.200591614763334;12.0;0.1302705996421113;0.017007665493640002;154.0;0.19870372392803642;0.12935920828549147;0.016757847878745562;157.0;0.1935676700554053;0.13179277714046733;0.017388515233470226;155.0;0.19184850555201893;0.13137261811545417;0.017275310238961613;153.0;0.18976860298225118;0.12480964656195566;0.015590676547459093;159.0;0.18609504653634457;0.11732283643891663;0.013771983932888466;160.0;0.18264084025326013;0.1153562963023845;0.013345342271178827;150.0;0.19045277189329732;0.09420307226409834;0.008880635358410265;166.0;0.17316605324004367;0.09851574787018046;0.00971911697134359;165.0;0.1747468964043046;0.1054413158469591;0.011132806672653766;169.0;0.17963180191360367;0.11741269176148615;0.013810166835037515;163.0;0.189838129629255;0.13104775928384918;0.017208424897857323;154.0;0.20087220759231908;0.13285253693744928;0.017699079764610746;156.0;0.20429893326979906;0.11013114099299391;0.012167521663692749;160.0;0.1989313857616587;0.09286137212418201;0.008628978282782342;170.0;0.1717445334198795;0.04173525779878342;0.0017475444020505736;162.0;0.10317610531649647;0.044374538780609395;0.001975966099758561;169.0;0.10317684149867133;0.050206668995968526;0.0025294748179343417;159.0;0.10505377283911796;0.055211353807208194;0.0030586570336491314;149.0;0.10686051862194684;0.05614271456298419;0.0031624848293358445;151.0;0.10758573148168639;0.0511531187346093;0.0026256200862229294;154.0;0.10410326025644244;0.04588647196526663;0.0021126250378181643;160.0;0.10030685115830634;0.037661314603124205;0.0014222218069507393;164.0;0.0998288093774968;0.035538456332347465;0.001265741423614322;156.0;0.09843233205271147;0.03659750048484358;0.0013420050925066801;160.0;0.10072726909456338;0.03991542184256518;0.0015969607578474793;163.0;0.10661340928377953;0.0431282337969259;0.001864955361366712;162.0;0.10953923380673934;0.04526190790529572;0.0020537020775153944;162.0;0.1106395767694655;0.04336413637659846;0.0018838011575634979;162.0;0.11124546356652695;0.03815496318413656;0.0014583305904472348;159.0;0.10647579920061744;0.0355125619603481;0.0012640043735135814;156.0;0.09655283400562499
0.13676764709059355;0.018764555649775652;142.0;0.20313810280672948;12.0;0.13707459935706515;0.018848539720118872;142.0;0.20003396170466087;0.1334867323941302;0.017874342214305623;136.0;0.19126423456169747;0.1321759283168008;0.01752719217043442;139.0;0.18545736917716465;0.12960390849093772;0.016851657391447568;136.0;0.1814558301507639;0.12299802773429185;0.015177727321709075;140.0;0.17620945011860392;0.11606480645158913;0.013514194589991564;142.0;0.17330405477926164;0.11957425666311007;0.014343174841008598;140.0;0.18837162943087732;0.09009670084861669;0.00814379306901248;136.0;0.16600996190303496;0.09322839024831091;0.008719145453136916;138.0;0.1674278192555333;0.09837963983993987;0.009708433322763173;136.0;0.17160948189808584;0.10682893230064633;0.011445317027005204;137.0;0.17925734291003084;0.11788428485891418;0.013936673649465586;138.0;0.18747451262091908;0.11608508612264924;0.013511631715773579;134.0;0.18688328844088384;0.09565202923070411;0.009178621623819461;152.0;0.18388339291538697;0.08856431826875456;0.007869085863163656;138.0;0.1637857387570161;0.09081715255732564;0.008273303554237254;151.0;0.16997415288163797;0.09936048210327418;0.009903632692875568;149.0;0.1649437628444316;0.10736350081552451;0.011563235127242591;148.0;0.16388496467110358;0.11155487226497438;0.012483588417509996;145.0;0.16492540312630327;0.11023523264167254;0.012188259806436568;149.0;0.16383445886191605;0.10104786141025615;0.010241112972841769;153.0;0.1583614070321558;0.09029715288349381;0.008178126198550788;148.0;0.15218964881214603;0.07766892091077363;0.006049891789650029;150.0;0.15725530717207706;0.07684867317169786;0.005924877408978774;153.0;0.15160059758430355;0.0813826867968433;0.0066446892832268505;157.0;0.15695423328474598;0.09288391455408856;0.008655615663591545;158.0;0.16848067882908532;0.10699880986570288;0.01148615525485741;156.0;0.1747356048484714;0.11825768852906543;0.014030587417083648;162.0;0.1778084423565533;0.10852292099088016;0.01181560717198478;161.0;0.1751093779560734;0.08591607605699436;0.007405371857782678;151.0;0.16301950396530285;0.074953843543321;0.00563616010573156;142.0;0.14695854024305496
0.09875861810787578;0.009785065100322978;150.0;0.17556909933127832;12.0;0.09907995036532102;0.009846627368649002;156.0;0.17484261728785172;0.0999181891585246;0.010005517656105176;140.0;0.16994037532431197;0.0993342810096848;0.009887256836793507;139.0;0.16690523264809565;0.09767637791832158;0.009551514149971083;138.0;0.16486893652314139;0.09300410457131944;0.00866196984396224;140.0;0.16110749313743905;0.08802263385222946;0.007758263583879865;141.0;0.15748345719856438;0.08749346102596176;0.00768010843763403;156.0;0.16725213635753103;0.07185014183808629;0.005175278640804998;145.0;0.15650075242455339;0.07359463537552681;0.005430911673154169;147.0;0.1576746517438902;0.07628442506442566;0.005834790769891049;148.0;0.16056903754238747;0.08051200839906238;0.006499684109396327;151.0;0.16673014867643218;0.08577607459348632;0.0073801127252723095;152.0;0.17290254819124282;0.0819861013362215;0.006743688902299029;144.0;0.16975167799822363;0.07546663107774187;0.005709597875413685;145.0;0.17023294186048163;0.07096148986148657;0.005046543405979615;144.0;0.1536621132542275;0.11255061555801724;0.012707137665599515;152.0;0.20192046218161255;0.11391949374798244;0.013016486039877673;146.0;0.1907084755379054;0.11628211532598835;0.013559775252161652;133.0;0.18287016751776514;0.11763541347659233;0.013878689459974253;133.0;0.18082449215672144;0.11605566647935289;0.013509443784587044;138.0;0.1800099444986732;0.10752986620357144;0.011595875655950622;143.0;0.1754754977042692;0.09691400574140714;0.009420351869439455;148.0;0.17053210881169148;0.09637954968423841;0.009318579944863016;139.0;0.18324227607316781;0.08364445666227772;0.007019071686855745;155.0;0.16639406130896858;0.0878408435052899;0.007741151782096861;159.0;0.17087136296986533;0.09831069908840838;0.00969647831460774;158.0;0.1792194716969775;0.11259188543995642;0.012717132295662901;152.0;0.1851221710261601;0.12560811109232434;0.015826613966457126;154.0;0.1905453546650995;0.11736756251520683;0.013820158564504541;143.0;0.18960750573719032;0.09694278932128338;0.009426945454485974;147.0;0.18196348232282272;0.08199276571505847;0.00674396538336617;146.0;0.1628375556496075
0.09483695138523848;0.009012177834375608;163.0;0.19126472138824172;12.0;0.09783636806542347;0.009595172667401699;170.0;0.1914308569631058;0.09722559097186675;0.009476100501623357;160.0;0.18529894183609563;0.09394284093891624;0.008844512840101671;159.0;0.1810159784402921;0.09148930040352406;0.008391668845456998;159.0;0.17711672936482858;0.08763045903112421;0.00769679813039439;159.0;0.17402615508769678;0.08391887130888083;0.007059373517614988;160.0;0.16976701707114217;0.08848795924010024;0.00785020843736615;172.0;0.1831021712578626;0.07190591901245232;0.005184675885102254;170.0;0.1720892340318373;0.07412280138062352;0.005509049582710129;172.0;0.17421541469783272;0.07826907136361884;0.006141968522771158;173.0;0.1779929092580122;0.08669271820560154;0.007536709630601954;170.0;0.18569338562482982;0.09800700936454837;0.009633217863445996;167.0;0.19263407706136715;0.0974574249764729;0.009528093801018904;168.0;0.18877652330228847;0.08518363627955859;0.00727945815883164;160.0;0.18801248881594843;0.07030103936629753;0.004956556608346832;169.0;0.1684328693021486;0.12182071421601862;0.014874073890766722;155.0;0.21511885488400465;0.10645080915592475;0.01135863047648372;155.0;0.198799664354014;0.09699423136927257;0.009431969343859552;137.0;0.18274267552879886;0.09657323936584156;0.00934984819078564;138.0;0.1776570771236568;0.09494473266978859;0.009035093247152643;140.0;0.1750667480120648;0.08774887873914053;0.007716321493830222;151.0;0.17119626438979452;0.07942979558626823;0.006320385950579552;152.0;0.16816876087418825;0.09034219381772858;0.00817439375649609;146.0;0.1844776042799646;0.06420887969965416;0.004133148709577677;154.0;0.15915439964183406;0.06500356436223784;0.0042362647177482384;157.0;0.1599950965126504;0.06833235851915256;0.004681153123015664;158.0;0.16385445933284898;0.07352763842806087;0.005421608484483322;155.0;0.16802103893662457;0.07866565974189065;0.00620360233076328;150.0;0.17287380603826857;0.07721404390257879;0.005977373194615454;141.0;0.17578766780248523;0.07560337368761273;0.005731244192644564;152.0;0.17730359820841465;0.06464972028513442;0.004189570919844303;155.0;0.15734616362758147
0.10911667668191773;0.011938467941536126;162.0;0.20579653866351133;12.0;0.11222356987854012;0.012626785238762955;162.0;0.20536394927722498;0.1072764292371821;0.011540509999976583;161.0;0.1977749901192803;0.10017720587081103;0.010066219058121965;165.0;0.1913963343333102;0.0970105514238442;0.009438606753228985;167.0;0.18669606571379338;0.09392908255193812;0.008848155357400543;164.0;0.18239211998273927;0.09179194257731622;0.008450177224809865;161.0;0.17845890109235496;0.10379127805091268;0.010800970634414611;156.0;0.19886696031376613;0.07813034309085237;0.006119585502374784;160.0;0.1765304434782661;0.0796828255882765;0.00636566198489725;163.0;0.1788415004690625;0.0841286863631562;0.007095832238508826;162.0;0.18377698135681259;0.09329433823754024;0.008727720724943096;157.0;0.19262205695383566;0.10845801974993449;0.01179608225144259;157.0;0.20234296553258402;0.11481544935133996;0.013215148064623001;158.0;0.20495210137581354;0.10469969350548879;0.010988371395781385;160.0;0.20418062758717637;0.07643120583075598;0.0058577776698659914;160.0;0.17366164344357812;0.12966024708222257;0.016866703725173265;146.0;0.2177936191153445;0.11507706412102245;0.013285326857800973;143.0;0.20203543666823165;0.10215669917061065;0.010467845075006105;137.0;0.1865653789437925;0.10076062850574223;0.010182169401677172;136.0;0.18190351932564106;0.09732700847487763;0.009501849916898923;138.0;0.17723741024897186;0.08781414124726776;0.007735360075252467;140.0;0.17204125703704015;0.076956904581274;0.0059417390056369195;134.0;0.16844497291191915;0.08897537604901144;0.007942507838643507;149.0;0.1875708174794821;0.06215623942069256;0.0038722854911862874;150.0;0.16338618707370908;0.06401098979249946;0.004104562664786838;153.0;0.1647174960196328;0.07121485408475602;0.0050779108281558995;168.0;0.17043068001741773;0.07972203559918294;0.006353695984794015;165.0;0.17601151633268236;0.08612085286879347;0.007414853967207396;163.0;0.1804790028145436;0.08389993477604442;0.007049406530299923;159.0;0.18255396905079946;0.07840348970877178;0.006163897973202326;156.0;0.17824196041426896;0.06121830530220003;0.003758085568797235;144.0;0.1605299606106739
0.0981208865692393;0.009658820503552906;164.0;0.19156393847209063;12.0;0.10185017141697429;0.010407227347842328;164.0;0.19304887905582055;0.09948933684440801;0.009930544719514984;161.0;0.18787547914128175;0.09717289969756249;0.009472729667503081;168.0;0.1832041466185307;0.09635240731301443;0.009313998220158413;172.0;0.17954615548265332;0.09281868232138947;0.008643382488051228;168.0;0.1754040735603658;0.08975987458961229;0.008082706567863102;167.0;0.17102304151479494;0.09380037596241042;0.008827346819396606;154.0;0.18685468885496945;0.07382485570922115;0.005467600423261345;164.0;0.16741600653665115;0.07483222741960509;0.005617345690989442;162.0;0.1691487352501315;0.07843306569006579;0.0061714713094464255;158.0;0.17405086963773184;0.08582183441171462;0.007388291208402462;154.0;0.18208124702165146;0.09735628859986456;0.009507828980786339;155.0;0.1919570314705686;0.10425895413878453;0.010905035223003687;153.0;0.19798592509347313;0.10070930801870674;0.010175516227290014;162.0;0.19844356721412518;0.0732440223812434;0.005381424552819702;163.0;0.16588723941560893;0.13732464009478926;0.01891273595052928;164.0;0.21739023247238498;0.12188211447253958;0.014893178878988092;152.0;0.20199468490264602;0.10887399284293185;0.01188081327872438;150.0;0.1916381263255597;0.10552029970282459;0.011161650918735585;144.0;0.188698643715197;0.10189257826896311;0.01040320514615978;145.0;0.18466339851424413;0.09331182654707931;0.008723099619297747;143.0;0.17969779514563883;0.08302902655811537;0.006905804776757036;145.0;0.1748637008643366;0.09885155408564815;0.009793411134600857;164.0;0.19120614885538229;0.06937552016915309;0.004824084096251794;152.0;0.17131581999918744;0.0733485623899365;0.00539319652485011;156.0;0.17326474190916266;0.08356657172912593;0.007000010584446379;168.0;0.17919087675515794;0.09587241575060419;0.009213531643875863;162.0;0.18610703286073702;0.10545980095115576;0.011148952877665345;161.0;0.19227616545801693;0.10381234115422112;0.010807682314177147;162.0;0.19478199302693727;0.09175217603272043;0.008443547906193278;156.0;0.18588048807368865;0.0672833389666659;0.004537355787911649;148.0;0.1675560414467554
0.08810121208280669;0.007786056239409435;156.0;0.17200765524873957;12.0;0.08944393894515998;0.008026223766007123;158.0;0.17575029539353595;0.09041981867307865;0.0082023362179515;151.0;0.1715346680712355;0.09171700191591275;0.008439518197895627;156.0;0.16941881463033856;0.09169335716731805;0.008434875590040285;162.0;0.16807086045422756;0.08743242899896288;0.007669319014098714;162.0;0.16507321374964234;0.0828248518528983;0.006881906364334687;166.0;0.16065613651044308;0.0838252519562007;0.007049078748005033;153.0;0.1675095938570283;0.07060326599030545;0.005001341153299485;166.0;0.15832339752720753;0.07219018335033602;0.0052288388489823995;160.0;0.1602012134293299;0.07560474467283218;0.0057349667028573515;154.0;0.16562902037185492;0.08301294287930415;0.006914189600370085;161.0;0.17521597863828406;0.09266632004473141;0.008615750727749744;163.0;0.18615173700608537;0.09499244560742355;0.009053185720514223;159.0;0.18881164307487341;0.09132713444386029;0.008367818928359496;162.0;0.18982864322805756;0.06980216589379504;0.004888532541817626;164.0;0.15588566218518227;0.1305915677139028;0.017109335724582966;170.0;0.2167367261772951;0.1179103513131168;0.013947771637776593;158.0;0.20448450145586491;0.11001171564461942;0.012137111634439588;153.0;0.19350359204892434;0.10884319703349556;0.011877194922874536;151.0;0.1908376331801393;0.10668020443029635;0.011408708799018865;146.0;0.1883306390434643;0.09946575532644189;0.009920874389152892;145.0;0.1841639823419773;0.09098137999121904;0.008298766227849056;147.0;0.1798706330416028;0.10024222779613957;0.01008106962107439;171.0;0.19075164785238174;0.07795017622158444;0.006093325512456829;148.0;0.17007339873763616;0.08083709736378435;0.006549806236934015;155.0;0.1720239532421334;0.08746837210098622;0.007668996835363882;155.0;0.17766949732239645;0.09588961183847926;0.009217225540790219;155.0;0.18442088726909314;0.10218463041988742;0.010465056106531968;155.0;0.19020842558207757;0.09909162675534737;0.009844639471807326;163.0;0.19204255621882552;0.08737896631264766;0.007659202685139404;161.0;0.18558053353904921;0.07676372239550268;0.005908993188598421;147.0;0.1677237976542815
0.09212365433839452;0.00851265045239437;154.0;0.17242245515276355;12.0;0.0918682717980028;0.008465017878509958;155.0;0.17242284145695588;0.09084645397815626;0.008279361993058646;158.0;0.16725103341155745;0.090184023834121;0.008158173586384782;155.0;0.16629442018960827;0.08940448414103665;0.008018818489725939;156.0;0.1660744556930417;0.08559888162514719;0.00734982506248912;158.0;0.16279149539297016;0.08151552493178733;0.006666066889232531;159.0;0.15923360678937967;0.08576015420217115;0.007377725583725523;152.0;0.1679019758750743;0.0681522629901753;0.004658995962952112;143.0;0.15638096488772604;0.06975727340359601;0.004881626814135228;143.0;0.15766951277418825;0.07277819826473422;0.00531345209749097;140.0;0.16086405723630617;0.07853621128627475;0.006187645021759427;150.0;0.16698255982637852;0.08642844638530701;0.00749423742834807;152.0;0.1751006331271695;0.0880897882327626;0.007784678746234086;143.0;0.17745142901395267;0.08274728578068495;0.0068694433136667786;147.0;0.1816275590345931;0.06651621165783705;0.0044383692303060895;145.0;0.15392303916630698;0.12146835508786295;0.014800943752615604;158.0;0.20855348292076287;0.1098224317891126;0.012094982415573137;157.0;0.19989747534564628;0.09617111062850715;0.009271504858248146;152.0;0.18536394232817754;0.09356445958385999;0.008776042209413987;152.0;0.18144953311136094;0.09154222965310156;0.008400248707845016;147.0;0.17940060444050424;0.08572011703014035;0.007368160746354706;146.0;0.17615311327597286;0.07918921314271775;0.006289245501172116;150.0;0.17285022218648138;0.09250500571215146;0.008584154476435485;163.0;0.18665035667283653;0.07397254859542429;0.0054892273680917005;147.0;0.16683209085129191;0.0763203188721716;0.00584297893715696;156.0;0.16821142306419692;0.08195061283725256;0.006736488836832167;153.0;0.1721118442634179;0.08937911251980026;0.008013886850905969;156.0;0.17857238139792003;0.09629408904689801;0.009300383546910044;155.0;0.1857495771724352;0.09157261081685086;0.008411183251408421;162.0;0.1881632130698214;0.08009764255629123;0.006435525889417721;160.0;0.18485672197924014;0.07174908105355769;0.0051638950959128575;148.0;0.16519954434961254
0.06465651120016942;0.004194021881618814;145.0;0.13694609239960742;12.0;0.06477287386182215;0.0042087033302004705;146.0;0.13353542535181534;0.06433338594729182;0.00415142199652681;150.0;0.1303130858042965;0.06436657477278133;0.004154567048827594;151.0;0.12947439880756634;0.06423187185111291;0.004137246210766364;150.0;0.12901411468991827;0.06154016239951966;0.003796588793863257;154.0;0.1257273942046232;0.05871378876121143;0.0034552975214298862;153.0;0.12405555607910315;0.05882559904193455;0.00347172830300741;151.0;0.13205955706004474;0.046640588475695466;0.0021810074222735473;139.0;0.12289182633808213;0.0476261043242055;0.0022744991527385936;138.0;0.12332075878763134;0.049709516032340105;0.002477116197100885;140.0;0.12426201528891866;0.052797260214440804;0.002794628623191072;139.0;0.1256067838678968;0.05707399211622356;0.003265507735879635;143.0;0.12884208081914875;0.05800046945349943;0.0033743831221777583;138.0;0.13066851723248019;0.050619973359320496;0.0025707045223708077;137.0;0.13226240615554521;0.04504263273454147;0.002034294994113383;141.0;0.12195062325525093;0.0914748510662913;0.008391590241910189;150.0;0.15458474947880735;0.07788088214822307;0.0060851991505135265;150.0;0.14664414566886702;0.06001087038616228;0.0036127429464609534;152.0;0.13503811896906276;0.05437843449337484;0.002966204294859531;148.0;0.13096165788348305;0.05154125792169515;0.0026645420907883354;150.0;0.12863808684310776;0.04866995850577916;0.002375891263791194;150.0;0.12694172338776588;0.04572647998086021;0.0020969107089469697;152.0;0.12481042410558252;0.06210388828523259;0.0038691462195125136;153.0;0.13614135166521332;0.04642422069144418;0.0021619240765073273;153.0;0.12484233300859209;0.04873678019672063;0.0023820725686261954;157.0;0.12595598815235842;0.054532334389180336;0.0029826774688882316;152.0;0.12741249232743534;0.062175567711154754;0.0038770269940849337;149.0;0.1321047871695487;0.06933398133999662;0.004821392754062411;150.0;0.13780236806809698;0.06658498132131302;0.004447787570086945;149.0;0.13912210954444473;0.05844992022374787;0.0034268399625161316;149.0;0.13772914819221113;0.04379272293912542;0.0019239343507858732;153.0;0.12382457762182154
0.02812910981900844;0.0007936761641373011;144.0;0.08044764546378992;12.0;0.02954647464285908;0.0008755737166251155;143.0;0.07782279386780587;0.031132119832214537;0.0009717586050904441;143.0;0.07606724809793973;0.03208015766495852;0.0010313694002692002;146.0;0.07484890771136117;0.03333648782899048;0.001113188771771326;146.0;0.07628390155546738;0.03376526838167619;0.0011414610739479967;152.0;0.07512634306147631;0.0334037870375923;0.001116744587037538;152.0;0.07651139454353957;0.02618898411135977;0.0006877951050625151;145.0;0.07971778342552403;0.02688598384208864;0.0007222526443825006;144.0;0.07495506814737646;0.026744225518521993;0.0007155667502948608;140.0;0.07404827861269347;0.026991125862497415;0.0007293704055933477;145.0;0.07505143881752022;0.02722261615943373;0.0007421282954675498;141.0;0.07629138719929068;0.0280694674216227;0.0007895433891388453;145.0;0.07717330096781505;0.02837071000941307;0.0008061975945554519;143.0;0.07891196291581654;0.02763335198112914;0.0007634775760274106;136.0;0.07979135431175371;0.02707147505191153;0.0007321830508171325;145.0;0.0746951870230339;0.01945126050198782;0.00037883810514425457;146.0;0.061244083957809774;0.020905505228701493;0.0004378154505861871;149.0;0.0603588826398746;0.02198464795651819;0.0004845647536088605;153.0;0.06150812256387964;0.022460725191231594;0.0005059762011518009;149.0;0.06307873124766768;0.022133158153057195;0.0004913820007035574;155.0;0.06245139645021939;0.01980749982102093;0.00039358429404775115;153.0;0.06173223899898565;0.016637820883450623;0.0002777245407406476;147.0;0.058692873801143845;0.015727105031739373;0.0002481190623244796;149.0;0.058253519453109616;0.011874668614189572;0.00014143510985240463;154.0;0.05745698805532781;0.012409836497071468;0.00015446881660064417;161.0;0.05901332081346045;0.01340107405439617;0.00018017531917874252;156.0;0.05847691282132029;0.014989811072384297;0.0002254118281253798;149.0;0.05999686616733755;0.015472406279838022;0.00024015602509699135;153.0;0.06003938830964792;0.01538649740011107;0.00023751334635580245;148.0;0.05995244593406196;0.014255009890178524;0.00020376520701011395;154.0;0.059056423970350144;0.012021169076972139;0.00014494137066954125;155.0;0.05934219641679294
0.05071464622135272;0.0025802782426619843;152.0;0.12750242813279478;12.0;0.05078730040954818;0.002587688496679621;149.0;0.1253844649180517;0.051683545467813057;0.002679888596938038;154.0;0.12356987328539296;0.052844383020240256;0.0028015762154675805;152.0;0.1222247446559804;0.05423565096075138;0.0029509830979592634;152.0;0.1230641416966764;0.05418405685335575;0.0029448337641302365;160.0;0.12099810983105266;0.053274916943659024;0.0028467169209996862;158.0;0.11976891687939713;0.052478173617823254;0.0027629602185742083;158.0;0.12767724594498164;0.04985561224405479;0.00249356951155646;149.0;0.11780383483410237;0.05231571539161856;0.0027456503760928687;146.0;0.11934023647971094;0.05613964693211294;0.003161939934012488;146.0;0.12320454916673736;0.06422809780912772;0.004138666007701553;145.0;0.13002716488310817;0.07219305070402793;0.005228736270270277;145.0;0.13604210462851457;0.06991412360189435;0.004903307351152411;143.0;0.13720649007273533;0.05983748615038851;0.0035920960778414433;134.0;0.1336465250293942;0.048014233921223316;0.0023128706624293053;152.0;0.11470999993401326;0.012450502540957012;0.00015518076487834657;140.0;0.05665043640239545;0.013906887281270394;0.00019347185586358293;147.0;0.05631547431796183;0.015025943750922581;0.00022588643550511552;150.0;0.057500531761886985;0.015417414811869624;0.00023759063467941466;154.0;0.05820492158949095;0.01536063716840955;0.00023581265982198282;156.0;0.05856396921572728;0.013727624745748263;0.00018847295958659174;153.0;0.05663622902970017;0.011824908181387756;0.00013983607445205109;151.0;0.05425562381366256;0.010553521537421662;0.00011136168452314988;149.0;0.05567664535106197;0.010231472003104225;0.00010470113829430836;152.0;0.05611725194299931;0.010409831611170935;0.00010839858491191753;160.0;0.05631233913938061;0.011092982451839099;0.000122910764949296;157.0;0.05602786273026493;0.011915760768234192;0.00014198920497359723;149.0;0.056732780146313215;0.012104999709385427;0.00014647793378948907;148.0;0.05639231325399884;0.012146852755558667;0.0001473970988154952;147.0;0.056773239683751704;0.011370290259888819;0.00012918528558783827;154.0;0.05653620275885987;0.01014664508805163;0.00010293566932752106;150.0;0.05480134098976965
0.07582865496340063;0.0057531040582787085;149.0;0.1562994004354493;12.0;0.07666797740182806;0.00587619423107863;141.0;0.1544220203274083;0.08094304533102144;0.006548789950638204;141.0;0.15385659429422072;0.08290628818448988;0.006864485989731886;139.0;0.15320968949200545;0.08246759291517372;0.006790161104847332;140.0;0.1529884222765488;0.07791918837800525;0.006066062310485665;148.0;0.1506779774800526;0.0740090976327176;0.00547169381993845;147.0;0.14729949142114032;0.0762759309229112;0.0058212738193515615;156.0;0.1568641378872243;0.0682468248071424;0.00465632612368154;158.0;0.14311689451684942;0.07123756160346079;0.00507514347548199;154.0;0.1456235462776304;0.07605899403081229;0.0057870005710726515;152.0;0.15026496678450924;0.0856742695996148;0.007347803932367799;148.0;0.15855628143096767;0.09434096677554897;0.008910799738862985;148.0;0.16493487562219153;0.09309377824128147;0.008677329330516986;140.0;0.16502164756879345;0.07980304644932783;0.006366311387741891;133.0;0.16424369085492382;0.06527915744461381;0.004258632800785576;160.0;0.1397775663127771;0.01026804794333001;0.00010577064961069378;139.0;0.05734492255052993;0.010884665615011682;0.00011885958104937846;137.0;0.05749450877541474;0.01203757277202774;0.0001453482949393251;139.0;0.06060862984945592;0.012166880133548495;0.0001484988815166556;148.0;0.05896967419791616;0.012231261349865435;0.00015007923312761306;148.0;0.059996902315823816;0.010839185405954709;0.00011786883799906018;140.0;0.0560112270889402;0.009233257638007173;8.55233658341784e-05;142.0;0.05382022001874954;0.008803540174061883;7.773802703813348e-05;148.0;0.05638415418199281;0.008025135695057495;6.460837478111387e-05;157.0;0.05417485807776305;0.00832558049645655;6.954177183867237e-05;154.0;0.05340292276924001;0.009185786927842544;8.465407709710745e-05;158.0;0.054741353976650906;0.009206234714476107;8.50232048436658e-05;150.0;0.053816505347964415;0.00978342876914608;9.60274733065049e-05;147.0;0.055226896173990486;0.010122612350495849;0.00010279759331510482;145.0;0.05518018040127784;0.009879206496294401;9.790461118946262e-05;151.0;0.057148046510709365;0.007839537231568492;6.165918604065536e-05;151.0;0.05250057189860371
0.08474205839128254;0.007198724789036326;153.0;0.16722613387457633;12.0;0.08227983620669839;0.00678843124170203;154.0;0.16203430284676146;0.08622797994252926;0.007455646372914293;153.0;0.1593344651759578;0.08895944851853711;0.007938167128436415;157.0;0.15832299478639328;0.08854004347038895;0.007864484317424633;157.0;0.15658571800593118;0.08335408514320157;0.00697045779365896;157.0;0.1545449842470163;0.0785920712018032;0.006196897907922114;159.0;0.15099122133576448;0.08345491511387954;0.0069832327560776005;163.0;0.16719926332019122;0.06638935034010252;0.00442194453369826;159.0;0.1455617998923903;0.06775038250329175;0.004605006897186896;158.0;0.14652904522476587;0.07108505723229049;0.00506944316546792;158.0;0.1511942402799061;0.07690642396596946;0.0059339475033793315;153.0;0.15851499989827647;0.082425475719114;0.006816115974180043;153.0;0.16295009055708898;0.08370918190315217;0.007029998875238548;148.0;0.1654980224340755;0.0801152734278213;0.006439440850360185;147.0;0.17327801064270681;0.06444687239056283;0.004166892173113794;159.0;0.14327716754512984;0.009549397859661928;9.134068726375002e-05;140.0;0.05974961457216636;0.009175829116934583;8.432458827639263e-05;138.0;0.0571745149240187;0.009978278988303377;9.982790718242353e-05;139.0;0.06044363970289285;0.010244448086420882;0.00010520106249945854;147.0;0.05996472770398631;0.010334238360158714;0.00010703854438843606;147.0;0.06097419249586618;0.009300638778662022;8.672599940240368e-05;143.0;0.059050958340775755;0.007924680387542779;6.292501845284766e-05;139.0;0.05847419622340644;0.00839277353636596;7.054073382751117e-05;144.0;0.05871540227879717;0.007486540922557441;5.595622126553732e-05;150.0;0.05476359692777642;0.008177798778587276;6.68718371324534e-05;142.0;0.053512084206093845;0.008532609864347115;7.267954936079957e-05;147.0;0.054653896401680675;0.008626967170628276;7.440905551787151e-05;146.0;0.054913931821417544;0.009154954017697097;8.370747192320684e-05;144.0;0.055989630889892644;0.009330641007780796;8.695513136411556e-05;146.0;0.05618084175485139;0.009272765469976546;8.588967868921894e-05;153.0;0.05732611010338047;0.007679162768848767;5.886645910108309e-05;150.0;0.05443266495747619
0.08281645110320662;0.006880806169295565;149.0;0.18464622435313652;12.0;0.07623246269713346;0.005830402881336191;154.0;0.17661323239767981;0.07135603629886782;0.005108096801098035;149.0;0.16808875454972816;0.07139758096189372;0.0051140967667158786;154.0;0.16347474756598881;0.07178378821993689;0.005169595000748905;157.0;0.1610319869946863;0.06872503683385503;0.004738568927640101;155.0;0.15770130383895478;0.06546216895442492;0.0042992961209684195;160.0;0.15449578657126126;0.0790194027049437;0.006264332843851916;163.0;0.18077156167289252;0.05675162192388289;0.0032303255980395632;154.0;0.15624697230892015;0.057650789491980894;0.0033335820316742746;156.0;0.15691175568829638;0.06080794783685694;0.003708799179433548;156.0;0.1609349546368681;0.06559439605921781;0.004316310172584611;156.0;0.16743616240632508;0.07293097673933148;0.005335318721602416;153.0;0.17331059655985034;0.07651814672002377;0.005873259780367168;157.0;0.17806812186165047;0.07594830120309025;0.0057862946589093;156.0;0.1835102872465743;0.05457769127679443;0.002987737561121416;150.0;0.1531226353421325;0.009038836306715054;8.196809711322934e-05;138.0;0.05961967782155275;0.008812060700288045;7.790564626888452e-05;144.0;0.05784028366777588;0.009998592089068555;0.00010029833548854403;147.0;0.05923399992620016;0.010811402078808235;0.00011727034706308538;152.0;0.06023114696693413;0.011119637001093068;0.00012405229733524544;149.0;0.06152477927571182;0.010539253276701315;0.00011143971210379535;147.0;0.06201171295922629;0.010369402943365373;0.00010787599328946382;150.0;0.0627867249838257;0.00915611679999339;8.410368424811614e-05;142.0;0.05971509350485552;0.009916010105814577;9.864352856441297e-05;140.0;0.05630601732609862;0.009928320191743008;9.889208152667784e-05;138.0;0.056414207269124966;0.010250789137083296;0.00010541805120331086;145.0;0.05680562911581717;0.010567779653408669;0.00011204068031845103;146.0;0.05798287501348314;0.010981461229952586;0.00012098154616524648;142.0;0.05863746411611703;0.011350956917994247;0.00012926764530787159;148.0;0.057798960317566164;0.010479276626802966;0.00011017715815178884;160.0;0.057507280683573324;0.00994603305018928;9.924900428799663e-05;145.0;0.0546759509845074
0.09079939257873511;0.00827092052924209;149.0;0.18760014867666888;12.0;0.0901967017498559;0.008161236564833729;148.0;0.1845938942643597;0.08731279871692248;0.007647600086867665;141.0;0.17832767900822213;0.08896607107332502;0.00793944138368098;140.0;0.17437679488306737;0.09058645118351148;0.008230084161256422;143.0;0.17327264763674655;0.08648329421317547;0.007499895754521633;144.0;0.1692270138952773;0.08106041847248976;0.00658929628469282;147.0;0.1647896063099008;0.08061900258158283;0.006520635721963158;150.0;0.17749154956856417;0.06674746184967648;0.0044679982638083085;158.0;0.16287197985477575;0.06780298432135815;0.004610779247028604;157.0;0.16312267447864526;0.07221583660077859;0.005231153537877929;157.0;0.16636142858951697;0.08023478464771408;0.0064573220156873504;154.0;0.17380151365906088;0.09127631354610426;0.008356809290150537;148.0;0.18144801711157152;0.09138487363149964;0.008376196584627365;150.0;0.18093958007653413;0.07635134616738341;0.005848167258853139;158.0;0.17953544590871703;0.06455643591353943;0.004180188761430825;151.0;0.1596398370454748;0.03192299760740989;0.0010221677612802832;144.0;0.08856700371598113;0.04098895559333321;0.0016843885481357358;156.0;0.09109957568772371;0.052969559009055256;0.0028120819228796383;152.0;0.09588926959081821;0.06279809655603699;0.003951385248947739;152.0;0.10182287137725878;0.06432741567415896;0.004146008890080424;149.0;0.10340166499236988;0.053859626382336157;0.002907544069878375;151.0;0.09860300895121597;0.04151876273682702;0.0017283387299627815;160.0;0.09291962522292965;0.025552747054309224;0.0006550370591974013;147.0;0.08322334384912261;0.026730685880709492;0.0007166622314820413;143.0;0.08373661513698291;0.0280361140465528;0.0007882983455638669;146.0;0.08721236469113362;0.030706880677365902;0.0009454386529401928;153.0;0.09203454384965802;0.03310016075535442;0.0010983056733973563;156.0;0.09360903610770539;0.03638934563522145;0.0013278850078140736;153.0;0.09580960631772723;0.028601185611514816;0.0008206669002366316;151.0;0.09010622102992531;0.02229163777764832;0.0004984992566430057;160.0;0.08663185835950497;0.026391541557200273;0.000698645487180582;150.0;0.08115899501991222
0.09575517275757707;0.009188503114254166;155.0;0.18850778792882752;12.0;0.09646660236302265;0.009325430598884155;160.0;0.18728511299367906;0.0932891277432058;0.00872239932804754;155.0;0.18119585997986945;0.09467678236198734;0.008987210324766787;150.0;0.17754640411431602;0.09566780368195266;0.009174183601553343;151.0;0.17564324563892292;0.09122993987524533;0.00834246798007285;149.0;0.1719736162619445;0.08474364031294863;0.007199044730979864;147.0;0.16673917352703066;0.08526507324362266;0.0072867898506265485;150.0;0.17918178204697058;0.06626794719672413;0.0044049608709067906;156.0;0.15889378992578818;0.06740899235115538;0.004557226219348399;156.0;0.16005046121730962;0.07188549016432201;0.005183507629848686;152.0;0.16434879045633588;0.0799689179337557;0.006414996709953106;147.0;0.1724787563356116;0.0901914135734777;0.008160108001211669;150.0;0.18054927969782758;0.08916783101947301;0.007974499066417038;153.0;0.18087398913726366;0.07626587370609252;0.005830950342040572;158.0;0.18097951671767296;0.0646666903024995;0.0041945710776738;156.0;0.1562864993212402;0.05803868162726904;0.0033742314519732;152.0;0.13443028047990205;0.06776349223623686;0.004602609710683998;162.0;0.13417815515973805;0.08045925579607409;0.006491183465864533;153.0;0.13557003502503326;0.08966595529036278;0.008064410777563088;149.0;0.1377177383392238;0.0887238648148054;0.007895760674355073;145.0;0.1370882641331744;0.07602096479174361;0.005796369458386449;152.0;0.1307625338110443;0.06279010763397415;0.003954163059707565;153.0;0.12434348476385516;0.049219979794712314;0.0024279628131722362;159.0;0.12393939238940721;0.05112929965720585;0.0026211626804192537;142.0;0.11471728172497836;0.056175043753685344;0.0031642483565688245;142.0;0.11999987251843548;0.06501277955437398;0.004238187051703693;137.0;0.1287349484386853;0.07383712480130858;0.005467352567541453;139.0;0.1348325457180171;0.08096558301970787;0.006574387685980201;142.0;0.14099981332624217;0.0662244062533009;0.004398389373975614;151.0;0.13848316725850288;0.04856413392224384;0.0023643783672117227;156.0;0.13006424889861568;0.0477742285953842;0.0022884481487877627;148.0;0.11149149684271649
0.10524475661047442;0.011092054498222672;156.0;0.2007639610347196;12.0;0.09574998041809264;0.009184225856051567;159.0;0.19424385957918955;0.08072959223466461;0.006532141050009175;158.0;0.18122223709589177;0.07735726992606824;0.005998523697892302;153.0;0.17433542750829062;0.07636318393409443;0.0058486695368728326;152.0;0.1715742889407875;0.07183089228734961;0.0051739764741521015;151.0;0.16747677268517402;0.06507367804633217;0.0042463599057228915;150.0;0.16134607131773046;0.08885090723165476;0.007909644906726654;154.0;0.19006879872300977;0.05224488886289729;0.0027344652535566264;152.0;0.1558625641985602;0.052675351249972815;0.002781534702059253;157.0;0.15670963244901592;0.05468408864269975;0.0029972886310196604;151.0;0.15914939132169947;0.05776171563526217;0.0033449293723847103;148.0;0.1631262543931049;0.06352256137237626;0.004046345333157214;156.0;0.16959697902949195;0.07186070516831318;0.005179823396175998;154.0;0.17816841957967958;0.07922254243090115;0.006296562719499881;157.0;0.18848917860014774;0.05151686957611771;0.002660797485359296;154.0;0.15327235999316804;0.07960318292666524;0.0063492031102115355;155.0;0.16483547363711282;0.083300314428122;0.006949369137607574;157.0;0.1596853950364779;0.08948391398282306;0.008012743977014108;149.0;0.15464724441195304;0.09541247920953473;0.009106082976827135;140.0;0.15273973555232762;0.09378609477828517;0.008799069590648556;145.0;0.15019287130026818;0.08290051754604703;0.006878967630444632;145.0;0.1449067080049959;0.07196940366741454;0.005184710910138559;137.0;0.14063672686829443;0.0646682364898286;0.0041877485548394815;159.0;0.1496998001898469;0.06543840522872191;0.004286311477536856;140.0;0.13380286268804067;0.07027484812693117;0.004943735757212948;137.0;0.1383381841239481;0.0795258337303179;0.0063319269903285265;127.0;0.14817140998972472;0.08912143585918046;0.007949225166512775;123.0;0.15638414015659882;0.09624981705932036;0.009280159890272368;126.0;0.1637195396794693;0.08514698290994908;0.007261389871566262;140.0;0.16573169328843304;0.07089302276030568;0.005035176543888553;144.0;0.15632721526606422;0.06189901135706344;0.00383465281334569;141.0;0.13071013377982835
0.12080445283749137;0.014634786266550138;152.0;0.2048536570934629;12.0;0.11159057314649624;0.012486977938673517;154.0;0.19884596208479796;0.09283038323077761;0.00863889088938684;154.0;0.1841691508685997;0.08772988109401482;0.007716688788761842;148.0;0.17667694241430226;0.08635040093181291;0.007476526339871046;146.0;0.1740791657183896;0.08193635010021576;0.006730197030071391;149.0;0.17017147576664274;0.0753240774618161;0.005688979440988985;154.0;0.16427587246847733;0.09526800610567573;0.00910024249940906;151.0;0.18739559437185624;0.05646890700729494;0.003198915035580202;151.0;0.1571066267644463;0.0568719067730209;0.003244958721661334;156.0;0.15780874831728806;0.05835315114591307;0.003416167809192388;154.0;0.15906202411154965;0.06097707383430773;0.003730307194916761;153.0;0.16254739444121094;0.06574232460770231;0.004336175778335237;155.0;0.1674811381089811;0.07494338454641603;0.005634802837141328;157.0;0.17415036190656907;0.08368455858612688;0.007025747838033741;153.0;0.1854452563841779;0.057011166050668124;0.003260851088570143;149.0;0.1552742004656729;0.08860404438645937;0.007874640941801467;153.0;0.1731863471832098;0.08709617801732107;0.007609348586563111;156.0;0.16681354036178206;0.08683436895369515;0.0075641891663093454;155.0;0.15910638390365;0.09112705071405093;0.008331260065069745;156.0;0.15793941639175213;0.09035202295569757;0.008190163791576287;160.0;0.15607035596023122;0.080964466834803;0.0065764867864998786;159.0;0.15072981614814887;0.07071819538499415;0.005017380181981714;151.0;0.14536717651202818;0.06547793815183656;0.004300283927061762;153.0;0.15402802247055078;0.0652058063894143;0.004265658279067885;148.0;0.14322296117254527;0.0683915053227033;0.004692639103199208;147.0;0.14658079324260992;0.07486222913751746;0.0056226615502484095;144.0;0.15409749143706086;0.08188262504103053;0.0067260473044202206;133.0;0.15991157538586193;0.08746393203248473;0.007674592286881688;132.0;0.16753773803153402;0.07998253275704122;0.006417097867164442;140.0;0.1681002455111308;0.07216007715508202;0.0052240927635632305;146.0;0.1588465088885803;0.06298462085176235;0.003979938962161403;151.0;0.13966337929473005
0.08924734764309412;0.007987062315126746;170.0;0.15262470199212844;12.0;0.0866658801916317;0.007532682037660984;174.0;0.15042740412125624;0.07595586367865749;0.0057874141920319635;167.0;0.14081588150995575;0.07291920996029251;0.005334586981921631;152.0;0.1366322144707549;0.07184393219760568;0.0051784143179823055;158.0;0.133501579441191;0.06868312188560464;0.00473276954251834;160.0;0.13138170735795615;0.06457166366804754;0.00418312522445358;163.0;0.12859236357115778;0.07108306616954792;0.005067916222652361;170.0;0.1392909553247425;0.04556905837561123;0.002083313017824668;157.0;0.12234799049597149;0.04644314303783295;0.0021640159688681208;161.0;0.12366142290028025;0.0480619099538373;0.002317492717818533;159.0;0.12435044118826702;0.0508935275367727;0.0025986176304018766;160.0;0.12855006439424194;0.054305798554184284;0.0029587565312795263;160.0;0.1317635707899827;0.058110610614842746;0.0033878457215456605;162.0;0.1339321657702469;0.06009906177287225;0.0036236839861139383;152.0;0.13794081660691856;0.0458294805302247;0.0021071988133525526;167.0;0.12072803618685436;0.06356095236449731;0.004042407110772899;143.0;0.12745429392831395;0.061526227079778;0.003790964327635927;141.0;0.12384536802754635;0.05938642640507071;0.0035321867901945557;145.0;0.1190341313140977;0.06060935056148126;0.003679545457114123;148.0;0.11804460444442816;0.05897986170651488;0.0034859986809737775;143.0;0.1166461528500903;0.05316898273488789;0.002830531212280709;143.0;0.11251693007595347;0.04737072917422292;0.002245915715590873;148.0;0.10867004620072891;0.04513937569727702;0.0020350055739227673;147.0;0.11424504898379235;0.04576667552666444;0.0020926586053669444;139.0;0.10949895653592413;0.04828334039204948;0.002328852557293824;139.0;0.11188724364778041;0.05290627308593672;0.0027963843588264176;147.0;0.11571104034131083;0.05772331403602777;0.003331576095625585;134.0;0.11842414645589562;0.061693158967218345;0.003805601750616268;132.0;0.12462401798223832;0.05362810777065665;0.0028705182140809134;149.0;0.12460283721073444;0.04712212233644471;0.0022114971326385284;156.0;0.11657529060422486;0.04407652297258036;0.0019401921865310912;148.0;0.10665535339604636
0.018312712428564536;0.00033560292584934213;165.0;0.07488618269255919;12.0;0.02009219079491715;0.00040384938216744706;163.0;0.07361490373422769;0.02467956733945406;0.0006095000586347145;156.0;0.07181270661003222;0.026980843889498236;0.0007297043085086113;146.0;0.07272084568655725;0.027793740973910186;0.0007742047010125381;155.0;0.07220594941893828;0.026689680261663237;0.0007137603031039688;149.0;0.07130568042825491;0.02533643406960013;0.0006430582644876959;149.0;0.07101496886373988;0.01898668215728851;0.0003611054273911839;160.0;0.07383602954493544;0.011307800278906637;0.00012821063891817316;161.0;0.06304251820094404;0.011754364321185224;0.00013858958487809861;165.0;0.06457429330532272;0.01117443699106754;0.00012520627851883397;159.0;0.0627415849447236;0.012212072125636398;0.00014957026547392897;161.0;0.06530608612074232;0.012699478823184288;0.0001617755188295058;165.0;0.06642542994725847;0.013653825572475693;0.0001870252988238902;161.0;0.0680502960334962;0.012856035714809295;0.00016579298129708157;159.0;0.0696424856829797;0.01125915976361694;0.00012711975673318406;167.0;0.06109566735496982;0.031936061075750505;0.0010229613205654591;142.0;0.07713096957231799;0.04035399967939597;0.001633465809383325;131.0;0.07995354615146819;0.05101334846542194;0.0026106175338136074;132.0;0.08653952831618521;0.0587433078705417;0.003461676297063466;125.0;0.09019592809881935;0.0582523662480177;0.003404391862150084;125.0;0.08992867790631318;0.046352285041209786;0.002155547070434031;125.0;0.08439005971163525;0.03551320078307404;0.0012652579340935713;135.0;0.08096385462775228;0.02577925739544578;0.0006666932439180827;145.0;0.07443392184276255;0.024767530083562795;0.0006145697632374767;132.0;0.07481801356362068;0.02495582223289066;0.0006240784119208786;132.0;0.07632728516575768;0.02741375180294251;0.0007532701997308216;141.0;0.0768137717720782;0.030589173408899925;0.000938401332485442;138.0;0.08069632737031379;0.03346923041505359;0.0011238466911022032;140.0;0.08354730265247448;0.03162394813323621;0.0010034055359394586;146.0;0.0849982890159664;0.02845468502880631;0.0008107124600810043;145.0;0.08077936380522653;0.024901121270518637;0.0006212929086457025;138.0;0.07375147203414686
0.05253048186261024;0.0027366263931641473;151.0;0.11191875439640238;12.0;0.05228933946632014;0.0027114576376544345;146.0;0.1110775076259481;0.05222386914521143;0.002705469137152318;141.0;0.10794893568856076;0.0536415387146601;0.002857569257737949;133.0;0.10720340822564467;0.054817930927313824;0.0029862671669271617;137.0;0.10792446986431471;0.05101338025016693;0.002587721046234022;130.0;0.10489688835904536;0.0475408356201108;0.0022499990019181552;135.0;0.10353008711206002;0.04493829697133679;0.0020045507521935504;143.0;0.10558400799516982;0.03309216123210964;0.0010948581220818997;158.0;0.09755325488101924;0.03482560576848404;0.0012120987368574928;160.0;0.10048969300468465;0.03678707937349986;0.0013524966424044505;162.0;0.10357489933008596;0.040274163373028374;0.0016207882915113278;164.0;0.10799549850940102;0.04739955085449623;0.002246198980744578;168.0;0.11471481761170925;0.04888941373809004;0.0023865600452246394;157.0;0.11627979142448157;0.036832459969979955;0.0013490527155791293;161.0;0.10798201565118067;0.032880625052417095;0.0010807467200173964;152.0;0.09446717066132211;0.049569031822824114;0.0024625321451638023;165.0;0.11982619424073977;0.05940246979614512;0.0035371202989107568;154.0;0.12183568344150929;0.07024958937240483;0.0049481490012457776;149.0;0.12656594206955513;0.07770566582135145;0.006056627365719888;143.0;0.12961538227024655;0.07710452931072578;0.005963842514796085;142.0;0.1292634202542872;0.06537797472289175;0.004287299045907858;141.0;0.12353941056810173;0.05474634095008221;0.003006511688303005;147.0;0.11849051889090065;0.040601874604180806;0.0016528713637301035;164.0;0.1137778619447998;0.04388114910037428;0.0019315886329084482;148.0;0.11929338861291493;0.04805094205117079;0.0023160757612504506;147.0;0.125041252696408;0.05802036121542779;0.0033772818288802624;152.0;0.1350424684784856;0.0703864291070921;0.004970353456240387;149.0;0.1439134677956728;0.07766912850764475;0.006052146648823767;155.0;0.15032495972670942;0.06707500012675403;0.004513503150031726;155.0;0.14594479585378997;0.053706689805365894;0.0028935534974073576;147.0;0.1366290672156778;0.04136694221706383;0.0017166787960666452;150.0;0.11331658509815627
0.10493330753350502;0.011045169874434267;171.0;0.15329871780879117;12.0;0.10277813251449723;0.010596392860988586;170.0;0.15190635491398163;0.10501647920156262;0.011063520593374171;170.0;0.1499516469301747;0.1072394519366366;0.011537963766592246;158.0;0.14982236265336374;0.10849966214178607;0.011810744363425657;158.0;0.15119231671361222;0.10357305549198458;0.010762483981747182;157.0;0.14693773538116056;0.09757159035710598;0.009551375487568002;161.0;0.14455295175493882;0.0915448859839344;0.008406100832899244;170.0;0.1452407297453118;0.07147697276413187;0.005125650133206169;169.0;0.13461278571839286;0.07065904692329929;0.005009005837286271;170.0;0.13554782943036436;0.07182376999619025;0.005175505344171539;174.0;0.1396371453770756;0.07493245222172941;0.005633140551651287;179.0;0.14532350121789522;0.08226883091705606;0.006789664109585444;180.0;0.1532027849591793;0.08940303480365026;0.008018588117364129;159.0;0.157203645538896;0.08405988212160168;0.007088602628565471;164.0;0.15357994849712117;0.07261787497771753;0.005290559412574058;166.0;0.13194797810475012;0.06568664958421379;0.0043268222115333335;172.0;0.1533547088494937;0.07145781649666581;0.005119753240165821;161.0;0.1517654642269721;0.07619776290725118;0.0058223573417391815;161.0;0.1508063957048099;0.07926259169491266;0.006302304555550423;160.0;0.1508039469774577;0.07854486416687362;0.006188593063191545;154.0;0.15019705636032615;0.07045665944868212;0.004977423477603284;151.0;0.14496062723548778;0.06156321568432747;0.0038002830114308526;158.0;0.1399377467561774;0.05546961177920311;0.0030851758912275123;162.0;0.14323115773464046;0.05245451361493521;0.0027579414226396276;158.0;0.14256357109979448;0.058098177557813754;0.0033834324371807747;154.0;0.14927599219721732;0.06959339508804148;0.0048547579711459244;155.0;0.16139003285726258;0.08222284105264309;0.006777627392585871;155.0;0.1688356468086388;0.08834005802038808;0.007823319594857731;156.0;0.17319943055735756;0.07564501900779537;0.005733973544574845;163.0;0.16721747656341854;0.06156912192025679;0.003796440637028733;162.0;0.15639221576254328;0.04932351686168776;0.0024389141940686625;161.0;0.13646282329048295
0.12311844443240096;0.015199064422189512;168.0;0.1715163211599741;12.0;0.12319623601430114;0.015219275521007773;168.0;0.17068111015721535;0.1268427962629276;0.016134424015702763;169.0;0.17239412132586843;0.12923151985646522;0.01675107509168116;163.0;0.1733873922251576;0.13012342979866887;0.016981611771542435;162.0;0.17441665530517403;0.126142527663464;0.015960385643491667;158.0;0.17139346527820606;0.11997071434529945;0.014436852588211311;160.0;0.16738307744197317;0.11082774651827454;0.012317463882990888;167.0;0.16546712618861478;0.08963035548399434;0.008059235242263442;173.0;0.15413514147853916;0.08868512260447611;0.007889833559431963;171.0;0.15398563649257038;0.08890634794663324;0.007928978120851773;167.0;0.1561251467602199;0.0912767770205352;0.008356645494634543;167.0;0.16068449338510013;0.09595263536983288;0.009235122901428599;167.0;0.16590813968068419;0.10446300436714714;0.01094662288200851;153.0;0.17266335392163834;0.10494084828110972;0.011046555352748604;155.0;0.17623587362132825;0.09102754605759346;0.008312809564326291;169.0;0.15331832173815507;0.07483469252401741;0.005615971955696641;159.0;0.15636362745735854;0.07840137071760409;0.006159464693719229;143.0;0.1560441738262021;0.08221203094742113;0.006775179686150437;142.0;0.15556982352163276;0.08438667186397922;0.007138949092368944;142.0;0.1567654397569127;0.08250585693018284;0.006824847320924603;139.0;0.15538849739102426;0.07421931575591131;0.005524705964615275;136.0;0.14867321535531583;0.06485530492918591;0.004218383169139159;140.0;0.1424918562234223;0.0674412865713792;0.00456200675119953;152.0;0.1467123608320419;0.055723903220451475;0.003115218501699339;155.0;0.13991873704741062;0.05949230812676239;0.0035509066124585187;155.0;0.1443803009122087;0.06652680732572933;0.004440192021665396;151.0;0.15179210079766572;0.07404510519713914;0.005500134126535318;155.0;0.15808310239677803;0.07763530155100784;0.006046472175001817;150.0;0.16066101330958824;0.07203974566950058;0.005206424913284871;152.0;0.16025937222808423;0.06803530213443101;0.004643266575787515;153.0;0.15314121433969685;0.05409418361571691;0.0029355217378608587;155.0;0.13649766764553226
0.1237100943293874;0.015351000678462396;164.0;0.1939197876218122;12.0;0.12728669628475361;0.01625150957332548;161.0;0.1914633860526322;0.13115801839564745;0.017254367308601082;160.0;0.18914501699752997;0.1327364709757875;0.017668105705369586;162.0;0.18922879326011838;0.132409439072072;0.017583141607939813;159.0;0.18874344805771162;0.12849483312347504;0.01655823058700304;153.0;0.1865616837731195;0.12256415629906668;0.01506757532678554;154.0;0.18233358902307484;0.11718275446994009;0.013772023774599924;161.0;0.18601767931939403;0.09451607407252516;0.008958609226466163;162.0;0.17095398421121946;0.09467821219017866;0.008989212768980504;159.0;0.17076527047701348;0.09499500038246884;0.009047590276675664;159.0;0.17224840080779277;0.09747924440927272;0.009527627923499173;150.0;0.17538125139612565;0.10147799482550009;0.01032166865313677;152.0;0.18025318952253194;0.10652055393927146;0.011374839630684678;147.0;0.18666824490695774;0.10604174202281232;0.011276513407374554;152.0;0.18969281467056248;0.09526028763322356;0.009099864734904994;160.0;0.1704086764472356;0.07550067149996044;0.005702499476330197;159.0;0.1638108328448717;0.0738138255883706;0.005436881924196997;147.0;0.16091854615486406;0.07564221159964774;0.005711889984923386;137.0;0.15708825675648205;0.07926189831535521;0.006270998567150964;130.0;0.1584040397546781;0.07971264468132168;0.006337643042151696;134.0;0.1571023264433108;0.07315282266441632;0.005341153191356101;130.0;0.1506658356201669;0.06405514884496659;0.004094331754149987;131.0;0.14364198290399396;0.0693769978179376;0.0048199368915192295;158.0;0.1534558042404609;0.05501557935593144;0.0030228397527256837;157.0;0.13885701319841426;0.058016660104122784;0.0033606899451522143;157.0;0.1434462562588914;0.06419124689280924;0.004113401060485404;151.0;0.1513197071059819;0.07213686950360818;0.0051984951018167;151.0;0.16024056610471102;0.07748808851463838;0.006000625366329286;147.0;0.16688278002354923;0.07548040899699213;0.005697867498661214;146.0;0.16935143378614995;0.07735900424070083;0.00599390733387828;149.0;0.16517051535160288;0.05382178329966814;0.0028925054576654187;151.0;0.13645661387860955
0.13253562124704674;0.017581972369277325;174.0;0.21682813282776597;12.0;0.13293809685459335;0.017683820256113043;167.0;0.21418892389284352;0.13347503748176442;0.017833558659769322;162.0;0.2035941794149207;0.13573033515325728;0.018451203312845298;164.0;0.19912894976077355;0.13712962131022405;0.018824828189502523;168.0;0.19848839001634663;0.13307451017519464;0.01773030265493418;164.0;0.1954593548358759;0.1266297321144994;0.016048550847512884;158.0;0.19082126009629935;0.1228169708325759;0.015115037233755181;165.0;0.20930812487672568;0.09871835183682308;0.009767267250699811;151.0;0.18207246428261073;0.09867917196990984;0.009758675790261321;153.0;0.18181186904813146;0.09984429626738761;0.009994480159714193;156.0;0.18325933139589498;0.10300058671561822;0.010639858226906856;149.0;0.18708418575058902;0.10992392758792313;0.012119958199970473;151.0;0.19343124421768604;0.11803249560552527;0.013975311526521447;148.0;0.20129610953749857;0.11546572656094349;0.013368976498179736;154.0;0.2052021605070205;0.09902776326589144;0.009825916925888621;151.0;0.1811636701444011;0.0741323860953842;0.005511652265014406;167.0;0.1739927398893393;0.06971053008083128;0.004874515005411181;155.0;0.16611576845046505;0.07246755525681534;0.005268436012012406;150.0;0.1571741551009465;0.07864868948572501;0.006205562383646527;147.0;0.15621728523367623;0.08117357562698409;0.006610212786363204;151.0;0.1562783536962652;0.0737443646491859;0.005455900535990998;154.0;0.1499191171621754;0.0637942500026365;0.004082907528113943;149.0;0.14255357260385038;0.06548690349267453;0.004298623242770756;164.0;0.1608025243102042;0.053809939252125606;0.0029025931689705665;159.0;0.14277836474054909;0.05686965321342796;0.0032392831910569636;158.0;0.148531180957737;0.06393496787583634;0.004092925996252065;151.0;0.1579644590653259;0.0715679288775647;0.005126803593276948;150.0;0.16529394395078084;0.0754245018914295;0.0056922224856840245;148.0;0.17010387475994052;0.06953366839182809;0.004844084818663012;148.0;0.17116607999707434;0.0704966310468266;0.004982869517130588;157.0;0.16725283865782847;0.052820412810927364;0.002797054033673352;150.0;0.13919850839060616
0.14108680161156692;0.019969689454299066;173.0;0.23066112267650554;12.0;0.13716047610102025;0.01887103761961359;161.0;0.2285270155906034;0.12685927937331326;0.01613956125887069;156.0;0.21230802592257417;0.12342559226787206;0.015268847095842508;155.0;0.20165048901060947;0.12339445060027308;0.015253497131744193;165.0;0.19785742029269074;0.1188241009706427;0.014148026442871083;164.0;0.19356645992923846;0.11207567528345148;0.012587470510469436;157.0;0.18733500772608588;0.11989955485018994;0.014420064902344997;164.0;0.216441599491871;0.08584133329363204;0.007384657701733967;153.0;0.18069524959416822;0.08656759880349642;0.007508390115088533;155.0;0.18174984673978295;0.08884101305460695;0.007908241067314905;156.0;0.18405504678251175;0.09223814885677684;0.008528641441428033;156.0;0.18919486643452552;0.10017929813298035;0.010059319483400365;156.0;0.1952491323422779;0.1107153556789775;0.012289062624916334;153.0;0.20212278346554916;0.11099931568405089;0.012353209851094784;154.0;0.2059483190128666;0.08546817211322293;0.007319818690377404;155.0;0.17857145626455337;0.07258992742668197;0.005280478562654065;163.0;0.17183248167810633;0.07079403524105471;0.0050195427464075;151.0;0.16330868662189416;0.07538491611747433;0.005693174345586425;149.0;0.15667692773362912;0.08194960808527732;0.006729725490228544;147.0;0.15589838838349465;0.08343519525508825;0.006977747994353024;150.0;0.15532978585334817;0.07336743110011068;0.005394340035190707;156.0;0.1487318911311319;0.0620449686589522;0.003855935337534967;146.0;0.14074789868908055;0.06257978192327959;0.003928202342753775;162.0;0.16134861568404743;0.05423566764508179;0.0029477250814855;157.0;0.139069960161023;0.05753209983748043;0.0033166212659206757;158.0;0.14409424233029391;0.06444743543077998;0.00416029123563189;157.0;0.15271162217202153;0.07110598501319144;0.005064635120096698;160.0;0.16028506009729643;0.07388041140291235;0.005468288208410433;156.0;0.1663469981343612;0.06827976093237136;0.004671445212843241;158.0;0.17351500530977332;0.06617279192791735;0.004392803070664597;160.0;0.1742276302927001;0.052580385228515956;0.0027709280163373882;151.0;0.13570346761994997
0.15951442229003301;0.02547206045023734;157.0;0.23681542385651894;12.0;0.15532111843131274;0.024145878820799303;149.0;0.23582478449424124;0.13370987922929556;0.017891047436029137;147.0;0.217999898057126;0.12019734921526677;0.014462373724004789;151.0;0.2047134628731228;0.1149326881448421;0.01322251041868817;155.0;0.19844513175182116;0.1085242115528475;0.011787386519755739;154.0;0.19349747707346426;0.10144763412832122;0.010297291595087554;154.0;0.18782213313757123;0.13012631728425303;0.016962457226548346;156.0;0.21193596885629945;0.07966720956250868;0.006361290698391765;156.0;0.1807266752760869;0.08072794074930545;0.006533333300703734;153.0;0.18158542199774907;0.08300312883254354;0.006906822367476233;153.0;0.18400536839329173;0.08611723217828242;0.007435315620838823;158.0;0.18766629028602824;0.09108545698915967;0.008319804479024027;156.0;0.1921477212059371;0.09612749602608527;0.009265437925024362;159.0;0.19383370703344188;0.09956088596207388;0.009933733510453622;157.0;0.19507188026122005;0.07915382688005866;0.00627786583035316;160.0;0.17871161194327348;0.06968515635335785;0.004868892962903929;155.0;0.16658681925231386;0.06929680504920903;0.004816029972271989;145.0;0.1573927924472051;0.07121017177703831;0.005086118741984119;145.0;0.15688522146087033;0.07559184537905063;0.005731479514953292;146.0;0.15914617470617598;0.07470189489233658;0.005597849337574945;146.0;0.1583554638670431;0.06462302852316713;0.004189320736213985;146.0;0.15334825766924037;0.05370165945621341;0.002892548770074699;142.0;0.1462610811848933;0.05675498649474772;0.003227259231996271;154.0;0.1580829278283842;0.04805074702594649;0.002313858754401598;150.0;0.1397771647852298;0.05153676779734215;0.0026600285246057317;155.0;0.14392454182750372;0.05731048475477734;0.003286606458781826;156.0;0.1511968997128953;0.06313791022870044;0.0039850898219118336;163.0;0.15744481465662108;0.06513778679294943;0.004238761546580361;162.0;0.1624376505223588;0.06502925446305509;0.004227878969051406;164.0;0.17346988428925925;0.06488462249317506;0.004217630981797757;157.0;0.1756731091443361;0.04550293967358165;0.0020750099036800965;151.0;0.13570269392740805
0.14235537323450537;0.020330476242453783;146.0;0.22643999439440185;12.0;0.1401812130153002;0.019714721898793686;151.0;0.22507302588471412;0.12266545050175075;0.015092314198395195;151.0;0.2080254452122837;0.11358862330146871;0.012940240597748698;150.0;0.19645138357211778;0.11009085180339025;0.01215279083030783;145.0;0.1910862043709638;0.10564271470373973;0.011191960666255649;147.0;0.1875264387118262;0.10027097234090912;0.010082333312082225;146.0;0.18295473354153602;0.11801032302238423;0.013969363538066331;154.0;0.20447583948085798;0.08369370366293197;0.007025507215287773;153.0;0.1752076740392096;0.0839001175320676;0.0070603537952560755;150.0;0.17529566295214685;0.0852093715998771;0.007282190821060405;149.0;0.17744677192952796;0.08826352740988119;0.007814093396237884;148.0;0.18118209549331218;0.09233351044091793;0.008551669534167685;146.0;0.1864065904286837;0.09564556278041036;0.00917603728180433;152.0;0.1868382041306742;0.09242109863907347;0.008567734404123334;156.0;0.18632006772807277;0.08292255307823043;0.00689658177754417;154.0;0.17355178239410993;0.06233062085700281;0.0038965035020319897;154.0;0.1556148936450835;0.06252431993016061;0.003920500176474548;154.0;0.14791993489561098;0.06506692931880746;0.004247139340626606;158.0;0.14996577002632852;0.06885399800049578;0.004756189142198583;162.0;0.1543548501304827;0.0666017348737638;0.004450198069811522;156.0;0.15481265622169865;0.05646138485074835;0.003198304598431618;153.0;0.14839147741134842;0.04649319088395964;0.0021686658226324844;161.0;0.14023169925014844;0.052024915555914306;0.0027153441953479034;138.0;0.14886159192375548;0.040776725273576;0.0016681636499373486;163.0;0.1383220044059747;0.04471432077251519;0.0020058814672529995;166.0;0.14367373965023383;0.05130556170687475;0.0026406920212644937;156.0;0.15219152922004647;0.05821459982488863;0.003399422837009225;160.0;0.15835432616087608;0.06118517447995086;0.003754526543244221;162.0;0.16118265211760083;0.060453312078189825;0.0036656477527840475;157.0;0.16466644635598332;0.0581373977201029;0.0033909710718731047;143.0;0.1603739119863751;0.03772101952750912;0.001427521339739723;159.0;0.13184038331653009
0.08523206857167734;0.00728559501354744;155.0;0.16796317494764385;12.0;0.0841869669263345;0.007106690006921898;158.0;0.16413357582914317;0.08107388775701606;0.006593522757731202;161.0;0.1532800912817003;0.08044444991227755;0.00649234416186209;154.0;0.14671172434132113;0.07937628420654656;0.006321399408771772;148.0;0.14346945350257115;0.07778934828759876;0.006070603115767;151.0;0.14206917146540382;0.07450000665189548;0.0055679583020384425;149.0;0.13837555827009795;0.07658151349814465;0.005882446955655321;159.0;0.1570311356176477;0.06273860414201284;0.0039488153437213375;160.0;0.13059586500233789;0.06272645453205847;0.003947384653877571;159.0;0.1308961137724302;0.06332102259394098;0.004022042297424213;157.0;0.13284505468590266;0.06523548672890513;0.004268674821089154;152.0;0.13682531751207982;0.06803494096449109;0.004642306171799601;155.0;0.14088735021071364;0.0716386570448285;0.005145458557388022;156.0;0.14207524302344643;0.06709469620272507;0.004514592905637026;160.0;0.14283914334786785;0.06192227535785699;0.0038466873207260006;161.0;0.12885139290572886;0.04905136064097991;0.002411602227064524;142.0;0.13222620474729813;0.04908742758660194;0.002416496529768739;153.0;0.12871142720702505;0.05107754645827958;0.002616485203518869;162.0;0.12917461788407614;0.05443571136768224;0.0029714462919794597;161.0;0.13214066374122319;0.05417606450709857;0.0029421205803510154;154.0;0.13215012561514197;0.047220700702840034;0.002234749824213086;151.0;0.12645620413321;0.04009162638550027;0.0016105031431612768;158.0;0.11929118344222422;0.045189750643733304;0.002047246233898278;130.0;0.12744011497488827;0.03496927544605441;0.0012241194248080948;163.0;0.11469710620996992;0.03739888998732297;0.001399618193767203;154.0;0.11800308142617448;0.04267503113037273;0.001822536219099005;147.0;0.12531186072049813;0.04874178729425538;0.002377954363680472;149.0;0.1319334211946048;0.054009151251579283;0.002919869578899584;156.0;0.13729958513481;0.05428009876739199;0.002951528701077099;156.0;0.1380898107124479;0.04867574662866125;0.002375410932937293;136.0;0.13281214366235858;0.03263575607039091;0.0010657903046346214;160.0;0.11080775072627938
0.08118445722413711;0.006608287001065531;147.0;0.14742154450963627;12.0;0.07257908315073225;0.005280225289317949;149.0;0.14139775948832084;0.06793508320179116;0.00462265214475551;157.0;0.13635013953625438;0.06820463405678552;0.004660879974184226;157.0;0.13490062161791563;0.06757528637223073;0.004576799717113827;160.0;0.13402959031577485;0.06450712203125732;0.004169191797254597;163.0;0.13226387428335365;0.06133444250512737;0.0037690432513655253;166.0;0.13097842185088507;0.08165625853571376;0.006684569371556005;153.0;0.14567831178819451;0.05925588240948481;0.00351945750227031;153.0;0.13111084223746639;0.06096345154345269;0.0037264349415123354;154.0;0.13201874450591822;0.06416620698375287;0.00412784743456122;151.0;0.13489728929272954;0.07021140456683678;0.004943475557277733;154.0;0.13911373846612773;0.07671733040273798;0.005903459143534439;157.0;0.14199839745043985;0.08018552528354694;0.006449855691122877;155.0;0.14555355408818293;0.07794555399388362;0.006094072574456295;156.0;0.14796262834421214;0.057170227709027875;0.0032764933279522553;158.0;0.1291526601620623;0.06549526620897902;0.004302757862872023;145.0;0.1418996963122687;0.07045966812660856;0.004979273844726258;147.0;0.1379030284986574;0.07973239487617864;0.006375939050317363;142.0;0.1376695471553128;0.09096848864567528;0.008298895139281557;142.0;0.14008337513458394;0.08981334438882085;0.008090413277640865;137.0;0.1387045245281667;0.0723407604858398;0.005248379171812917;139.0;0.13284382083595164;0.0565182845854157;0.0032037848236272874;147.0;0.1287202453357307;0.06389047229535555;0.0040946957652125806;146.0;0.142927135071207;0.05019571337127445;0.0025274404561106975;148.0;0.13077284820340523;0.058141195896857414;0.003391206088828426;139.0;0.13751332992724613;0.07315442438940735;0.005367990761364505;144.0;0.14956070401855617;0.08917290216070581;0.007976704068815023;147.0;0.15881714424444252;0.1006963111885622;0.010170718646882465;155.0;0.16572806836453466;0.07898319860083311;0.00625659049969584;159.0;0.15856880057168504;0.06954195666121131;0.004851166632466792;150.0;0.15805045774189255;0.044951308794081705;0.002027122803034061;150.0;0.12450997921407596
0.09274936167629239;0.008627992671723317;133.0;0.17624244632490452;12.0;0.08329025192131204;0.006958656444712521;139.0;0.17002345165977273;0.07967134656863553;0.006367191789650589;147.0;0.164031492213752;0.08083974962586529;0.006555411297597799;149.0;0.1622981585668735;0.08156720579711245;0.006672697521289306;153.0;0.161353622414099;0.07894141716871478;0.006249423008488186;160.0;0.15857054998445616;0.07724354195585086;0.005981993116452376;166.0;0.15686400673873857;0.09095517347233709;0.008297599442318622;143.0;0.17103786138414973;0.07156409144760582;0.005136531645828695;141.0;0.1562518881762684;0.07208361730033072;0.005211262116080244;144.0;0.1569324981482834;0.07394805441090746;0.005485309749111453;144.0;0.15957921798033017;0.07870684678798202;0.006214055408332284;148.0;0.16425352159374135;0.08400422309961453;0.00707908491763754;151.0;0.16797585956212865;0.08758869489923207;0.007695874617180387;149.0;0.17211965699286327;0.08803962535544299;0.007775517349907293;159.0;0.1768055667311469;0.07049301703190365;0.004984192245029276;150.0;0.15419769472279823;0.08023227972684502;0.006457429158339165;149.0;0.17398795805818398;0.08808458829039423;0.007781803760103048;147.0;0.16860604727953707;0.0993271279300012;0.009895830984526415;137.0;0.1656059959104461;0.11060415910262172;0.012267638998197402;138.0;0.16659986993561188;0.10901320514745677;0.011918444397808198;136.0;0.16507073231131744;0.09055355503711068;0.008221895583866767;136.0;0.15796034136520234;0.07405903703373762;0.005499073236151289;147.0;0.15309981842176168;0.07481548402290189;0.00561486502954086;156.0;0.1695637087441596;0.06259543798893742;0.003929030707611444;145.0;0.1557845801599769;0.07032337019418805;0.004960887981504181;145.0;0.16487076352549085;0.08565893061735938;0.007361168469686998;156.0;0.17934053769957298;0.10215551780266403;0.010469949886771983;158.0;0.1902800053134552;0.11355408664083126;0.012936779538235231;165.0;0.19734574095431515;0.08998476737094098;0.00812352448069837;161.0;0.18821595626699322;0.07849742937383652;0.006182114384633925;156.0;0.18598992814868903;0.058195578249527105;0.003395012322858711;147.0;0.14787489201724222
0.08796874744251974;0.00775711829905162;146.0;0.1825567425409856;12.0;0.08127042602676605;0.006621732825141481;147.0;0.1771571047498722;0.0777880441224976;0.006068342293309653;146.0;0.16858042283499705;0.07737068718125274;0.006004389558801688;144.0;0.16471312480555925;0.07760262281575334;0.006040825659033839;150.0;0.1635954358550165;0.0754524305782005;0.005710157989005663;156.0;0.1604964150964833;0.07339696301648307;0.0054035309146863615;157.0;0.15730297266256849;0.07987923399255024;0.006398649038688502;147.0;0.1745862898110784;0.06214171764028363;0.0038740142650941123;154.0;0.15248494456815284;0.06225701108186032;0.003888613001779079;154.0;0.15289125434772163;0.06309294838607524;0.0039936369574274065;158.0;0.1553248537043024;0.06624934324089637;0.004403263834152266;156.0;0.1611485695271993;0.07151180622597683;0.005130491227846824;163.0;0.1668286292845853;0.07865863680724411;0.006207415093730276;155.0;0.17287126112991205;0.08163282959417337;0.006684771107357761;157.0;0.17868065855857135;0.06212026470464246;0.0038715375006434867;155.0;0.15027332404986593;0.08173152255009786;0.006701164770481713;158.0;0.1837215653726902;0.08720657393604503;0.007629868676973215;147.0;0.1785005590938596;0.09155563783392114;0.008409041222028296;145.0;0.1731449152833497;0.09605955835606786;0.009255598597756038;145.0;0.17257832288794905;0.09556705674306834;0.009157017556254053;145.0;0.1717150506550657;0.08447078226047008;0.00715594779410081;146.0;0.16651313142115648;0.07262268335595087;0.005290331638835762;146.0;0.16011856281755552;0.06851491092021904;0.004709118549901941;161.0;0.1711153625466347;0.06001510560040192;0.003613286103697839;147.0;0.1557994845084351;0.06512456222440209;0.004255319552586527;150.0;0.16297719837507052;0.07543026015691769;0.005708500677599202;158.0;0.17481544649964126;0.08701577284291212;0.007595878870052018;161.0;0.18389994719430555;0.09596016596882287;0.009235937894955151;166.0;0.1915302203556536;0.08822655889076733;0.007809253278537;160.0;0.19520035557896043;0.07746678428549392;0.006019730455508583;152.0;0.18898022677313486;0.057257189821555796;0.003288416517422991;150.0;0.14989941822947214
0.11545017985968391;0.013368894866246218;155.0;0.2070730793489643;12.0;0.10909176416958558;0.011936123909969685;150.0;0.20074389805368598;0.0983580652388945;0.009703822218732942;138.0;0.18739494091146475;0.09489463276282147;0.009030494183579964;134.0;0.18176930790024762;0.09228712424772702;0.008541419118713697;144.0;0.17923042674944395;0.08743113506764859;0.0076633391835443975;149.0;0.17576602667663693;0.08104256242120449;0.0065860791753857475;147.0;0.17225460098782122;0.10016124100634165;0.010063313266074403;154.0;0.19580707170068512;0.06438597418598921;0.004159106788705416;160.0;0.1675084687375966;0.06588793510868618;0.004355415732158485;158.0;0.1679143503469143;0.06901697759585468;0.004778911972969479;160.0;0.17128971669149193;0.07534966615488939;0.005696140696275641;156.0;0.17761830296582082;0.0839314941663955;0.007067522835566726;164.0;0.1828301746787837;0.09104969631152902;0.008316918545607099;156.0;0.18722755284567286;0.0903207711897948;0.008183765827395736;151.0;0.19216394598190778;0.06335972949796867;0.004027547818047081;154.0;0.16552949278313758;0.09658774932010787;0.009358563676842626;165.0;0.1989642728580984;0.1003163197348729;0.010095966496455212;156.0;0.19406258685224967;0.10765868786963294;0.011628263822052558;153.0;0.18893144124563263;0.11498689954452469;0.01326519080118166;154.0;0.18836382670939353;0.1151210315493577;0.013296143385943497;155.0;0.18655113736965637;0.10233852743562247;0.010507315273120713;159.0;0.18029546610272948;0.08669806980647503;0.007541134503615873;155.0;0.17219080528349232;0.0823690955113202;0.006801548932500884;155.0;0.1855458108250358;0.06932791592420201;0.004819737938281561;154.0;0.16634664530690685;0.07379315007423418;0.005461083565853866;153.0;0.17273472881288443;0.08368493133261538;0.007020912386790672;154.0;0.18427451850243173;0.09502118711182049;0.009054339360156349;159.0;0.19347040986228925;0.10325232117523944;0.010694223995963443;163.0;0.20006142431981808;0.10040638637180326;0.010114215394597554;154.0;0.20717641535692982;0.09309224549783345;0.008693781380208885;151.0;0.20057402948138758;0.06673677882197046;0.004466981244535217;153.0;0.16143148920086783
0.12551741507532668;0.01580371324456164;148.0;0.2097275929570601;12.0;0.12110555878831364;0.014712386349014029;147.0;0.20590521477293577;0.10742574694696526;0.011577464470943228;144.0;0.1918983398943435;0.09902983645643883;0.009838921769547055;140.0;0.1849615387736956;0.09489404020814066;0.009034334840994735;142.0;0.18189975619735538;0.09044964348945261;0.00820793509252896;146.0;0.1785384966932223;0.08514758719798428;0.007273855545018119;151.0;0.17512334152446538;0.11337583413640338;0.012896006039281004;152.0;0.19941481514423293;0.0684837020363711;0.004704616976855577;159.0;0.17333269758328246;0.06958225058335211;0.0048571566512742885;158.0;0.17420717821357964;0.07311214441459128;0.005361837029936537;158.0;0.17722552053385646;0.07893950828971615;0.006250156343885169;155.0;0.18268178088155754;0.08628413509914583;0.007468173178713313;154.0;0.18735444672086204;0.09055815931034311;0.008221920505012659;154.0;0.19002611178320192;0.08874337935027356;0.007889883997745692;159.0;0.191222902603647;0.06757970276080304;0.004581446512357472;159.0;0.1710246105264694;0.09285336868499236;0.008645724002923504;154.0;0.199792707382345;0.09455903977465695;0.00896727799718591;155.0;0.1940494734719879;0.10154824464880165;0.010343870447005146;154.0;0.18915848825118753;0.10846934017620477;0.011802640286171067;157.0;0.18888622185222267;0.10900572471168382;0.011921054914765004;155.0;0.18828323235086486;0.09804965361400775;0.009645133560239987;158.0;0.18268628905877177;0.08521928913639469;0.007285052777809393;153.0;0.1762344595679113;0.08179657424618424;0.0067047690306301375;150.0;0.1858230477648715;0.06974083182128939;0.004877121451112839;160.0;0.16884752242389695;0.07204647163582646;0.005205212703788548;155.0;0.17340840655212206;0.07856053938214168;0.00619027480723885;156.0;0.18280789415928597;0.08468343294790355;0.007194307449814397;160.0;0.189462451077417;0.0876642798554663;0.007710109896955075;158.0;0.19228801129834935;0.08803503637267034;0.007773935735060487;158.0;0.19581510681446873;0.08716562869881832;0.00761678357726592;152.0;0.19267979487297612;0.06855609912732132;0.004712478019210267;151.0;0.16580878266117258
