rms_s1_ch1;var_s1_ch1;zcr_s1_ch1;wl_s1_ch1;rotule;rms_s1_ch2;var_s1_ch2;zcr_s1_ch2;wl_s1_ch2;rms_s1_ch3;var_s1_ch3;zcr_s1_ch3;wl_s1_ch3;rms_s1_ch4;var_s1_ch4;zcr_s1_ch4;wl_s1_ch4;rms_s1_ch5;var_s1_ch5;zcr_s1_ch5;wl_s1_ch5;rms_s1_ch6;var_s1_ch6;zcr_s1_ch6;wl_s1_ch6;rms_s1_ch7;var_s1_ch7;zcr_s1_ch7;wl_s1_ch7;rms_s1_ch8;var_s1_ch8;zcr_s1_ch8;wl_s1_ch8;rms_s1_ch9;var_s1_ch9;zcr_s1_ch9;wl_s1_ch9;rms_s1_ch10;var_s1_ch10;zcr_s1_ch10;wl_s1_ch10;rms_s1_ch11;var_s1_ch11;zcr_s1_ch11;wl_s1_ch11;rms_s1_ch12;var_s1_ch12;zcr_s1_ch12;wl_s1_ch12;rms_s1_ch13;var_s1_ch13;zcr_s1_ch13;wl_s1_ch13;rms_s1_ch14;var_s1_ch14;zcr_s1_ch14;wl_s1_ch14;rms_s1_ch15;var_s1_ch15;zcr_s1_ch15;wl_s1_ch15;rms_s1_ch16;var_s1_ch16;zcr_s1_ch16;wl_s1_ch16;rms_s2_ch1;var_s2_ch1;zcr_s2_ch1;wl_s2_ch1;rms_s2_ch2;var_s2_ch2;zcr_s2_ch2;wl_s2_ch2;rms_s2_ch3;var_s2_ch3;zcr_s2_ch3;wl_s2_ch3;rms_s2_ch4;var_s2_ch4;zcr_s2_ch4;wl_s2_ch4;rms_s2_ch5;var_s2_ch5;zcr_s2_ch5;wl_s2_ch5;rms_s2_ch6;var_s2_ch6;zcr_s2_ch6;wl_s2_ch6;rms_s2_ch7;var_s2_ch7;zcr_s2_ch7;wl_s2_ch7;rms_s2_ch8;var_s2_ch8;zcr_s2_ch8;wl_s2_ch8;rms_s2_ch9;var_s2_ch9;zcr_s2_ch9;wl_s2_ch9;rms_s2_ch10;var_s2_ch10;zcr_s2_ch10;wl_s2_ch10;rms_s2_ch11;var_s2_ch11;zcr_s2_ch11;wl_s2_ch11;rms_s2_ch12;var_s2_ch12;zcr_s2_ch12;wl_s2_ch12;rms_s2_ch13;var_s2_ch13;zcr_s2_ch13;wl_s2_ch13;rms_s2_ch14;var_s2_ch14;zcr_s2_ch14;wl_s2_ch14;rms_s2_ch15;var_s2_ch15;zcr_s2_ch15;wl_s2_ch15;rms_s2_ch16;var_s2_ch16;zcr_s2_ch16;wl_s2_ch16
0.06026381730656836;0.0036410640231632294;149.0;0.13185693998276948;12.0;0.052683685963770245;0.002782919051304766;146.0;0.12269465743703666;0.05138465232773585;0.002647986292958397;150.0;0.12267365507675974;0.05176148430490487;0.0026868258660614876;141.0;0.12575281219684953;0.04851294341353883;0.0023600275130079527;142.0;0.11862544004959841;0.04753680251635302;0.002265949985216617;156.0;0.11547224346437122;0.047487712665014496;0.0022613655818016173;155.0;0.11363790296637022;0.06952914359772282;0.004847060750254831;149.0;0.13923643069665864;0.0787846245236789;0.006221810056341398;132.0;0.12623483221901025;0.08870820894260623;0.007887604812102452;141.0;0.1337077078436682;0.08579978996719824;0.007375202328022892;138.0;0.14049633019845334;0.08794176854047972;0.007750516797652841;126.0;0.1524925739722818;0.08057863925871542;0.006509243128983164;123.0;0.157818584077107;0.07290258387494289;0.005330883810774733;137.0;0.1586835427497257;0.06556225005457288;0.004310648449359589;137.0;0.1471021259973018;0.06226779816287553;0.0038862430634912888;145.0;0.11746632447050509;0.07072149227602173;0.00501564822165885;144.0;0.14109853601540603;0.06451340681840656;0.004173308546844045;141.0;0.13433781518251522;0.051359719481106764;0.002645777977260094;149.0;0.12488500390575229;0.04445337542996657;0.0019818454825473787;156.0;0.12093988549567596;0.041852226551971815;0.0017568163512193678;146.0;0.11793142032722108;0.04166673067522756;0.0017415227260771454;141.0;0.11717310304848057;0.04243534352292788;0.0018064654596319698;142.0;0.11648304231181929;0.07909099523433949;0.006275034047324482;153.0;0.1437355467986862;0.05680557875145084;0.0032367213539350706;149.0;0.1281605933513183;0.05849425389929765;0.003432471323630076;145.0;0.13282741052646738;0.06382704731904491;0.004087014565399535;146.0;0.14134329914124108;0.0685162417024633;0.004709837937814617;161.0;0.14626518560464893;0.06166201455294775;0.003814643730952734;164.0;0.14873051357256234;0.05796092383745229;0.00337044090567109;156.0;0.1464621003202714;0.06025792150722206;0.0036428315260546534;141.0;0.13935640667051413;0.05449970443511502;0.00297942158544862;157.0;0.1289714491457244
0.04836299202340271;0.002345997250476618;154.0;0.11797771973511692;12.0;0.04080198957061596;0.001669895986259053;158.0;0.1084014057797271;0.0386119524207071;0.0014957347435033525;167.0;0.10593209803121185;0.03867729005535346;0.0015006413176604457;157.0;0.10821850947637857;0.03539871335986787;0.0012571622778094532;162.0;0.10252945678429051;0.034363024252484366;0.0011846704862845578;167.0;0.09912446432479384;0.03324483733253111;0.001108809816923613;172.0;0.09705427744239938;0.053355555107466375;0.002855650820542482;147.0;0.12307269658250478;0.06596314296262565;0.00436530143095191;157.0;0.11632960638116725;0.07809569148579788;0.0061189145474799325;161.0;0.12481702037062181;0.07285880019853079;0.005325715260518519;156.0;0.12696555716612634;0.06872998047658314;0.004738355492459445;137.0;0.1330176734291883;0.06285850788921989;0.0039631315999035955;138.0;0.13904589893159813;0.056154149648329155;0.003163309995606128;151.0;0.1389101934345018;0.04755888549398502;0.0022686830173106465;155.0;0.12574307144481475;0.04738430371255292;0.002252144318443706;164.0;0.10544272482159853;0.06952487600717056;0.004848450706361216;142.0;0.14558226661146934;0.06171366522448256;0.003818814926409854;141.0;0.13634447161550373;0.0486370051534674;0.00237309004509651;147.0;0.12581646975705812;0.0426235597068237;0.0018226965467640533;155.0;0.12030183590318001;0.03970496656265906;0.001581089034041395;144.0;0.11564187074080293;0.03867548064246355;0.001499762301682365;141.0;0.11333481053880883;0.038497189588529726;0.0014860126851141359;138.0;0.11176681460974698;0.06591658835144415;0.004359067173688993;147.0;0.14514949984587744;0.04961844606905414;0.0024676494843021536;147.0;0.12366218586402809;0.05115591996566158;0.0026236159872485986;152.0;0.12891327631592336;0.05724486791476886;0.003287463750585876;146.0;0.13987878502373322;0.05549114887484206;0.0030893554000485054;157.0;0.14440941921140252;0.046258672224414425;0.002146851735615892;157.0;0.14241135190629156;0.04780032835619267;0.002292278246049897;156.0;0.14114351130142627;0.05012603031345204;0.00252077453394531;148.0;0.13731877941280018;0.04622842670575602;0.002140902962790709;147.0;0.12028848761504427
0.03286902988315435;0.0010810821862502057;157.0;0.10535945277441183;12.0;0.028766961079129193;0.0008278663197784695;159.0;0.10025803004089576;0.028042134633346122;0.0007867113675329659;165.0;0.09900205227453908;0.030815306266730846;0.0009508374280168648;160.0;0.10330132861912518;0.027891417624185174;0.0007786634374262079;169.0;0.0972094728969115;0.02721953878792642;0.0007415912893017656;169.0;0.09430344539394596;0.027112273974011013;0.0007354945715195784;174.0;0.09328419382694574;0.03454340247915259;0.001194691824572885;157.0;0.10841581413330742;0.03823640456088333;0.0014602555731116902;179.0;0.10023340426955482;0.043495220595649364;0.001886855802102621;171.0;0.10781272068783102;0.043235706135754864;0.0018631427026699892;165.0;0.11463828746131748;0.04573198569440535;0.0020850799394066433;160.0;0.11933867810093783;0.043912685027581846;0.0019271454760576622;160.0;0.12120012685614202;0.03926281243107128;0.0015435035429199357;163.0;0.1220941275221192;0.032459651395062364;0.0010540714960160286;167.0;0.1135288089694145;0.0312317632655719;0.0009740098431165244;176.0;0.09634385439726852;0.06790532020976395;0.0046107863177317875;137.0;0.14982662692288812;0.06132628021255366;0.0037631550005222387;143.0;0.1407809365168601;0.05066704019719877;0.002567989764453486;138.0;0.13106224683477408;0.046616659483196786;0.002175484622618569;145.0;0.12545903900128308;0.04359849961934913;0.001901840603630073;149.0;0.1203423487272641;0.042086442102761724;0.0017728401157031137;154.0;0.1173776780575747;0.04096438625669053;0.0016801127728544374;148.0;0.11525326858279178;0.06780422904494708;0.004604272533947492;141.0;0.15255214831413552;0.04465844352448137;0.0019946638638892226;146.0;0.12709703911518241;0.050956575026746;0.002597070448364931;143.0;0.135744267041782;0.06020464338679209;0.0036267578159351515;150.0;0.14712410698409925;0.05621748126693978;0.003165469999695056;152.0;0.15041080514325272;0.0527116514050876;0.002784137794979122;145.0;0.1468512584986181;0.058489717227698135;0.0034283577858551044;151.0;0.14684608651556905;0.0556184927841499;0.0030989903018986153;146.0;0.1407562246993755;0.04087992733715111;0.001671501752116255;150.0;0.12137315088234987
0.02731818123934783;0.0007461211002427874;158.0;0.10246068616634534;12.0;0.02444637023876736;0.0005984523313193763;156.0;0.09695114905918778;0.025232116700887253;0.0006382946292796786;152.0;0.09701651089000281;0.029223222758760926;0.000856719851169145;159.0;0.10160527089211148;0.025328533355696698;0.0006435805905085878;153.0;0.09524832234402855;0.023383393321658216;0.000548527359814841;152.0;0.09274168805797366;0.023436512888801598;0.0005509889760861408;151.0;0.09104385764226025;0.029918041399066248;0.0008963295211748734;163.0;0.10624298758457587;0.03127246804237857;0.0009811696201899938;153.0;0.09551022258632888;0.03480894201608392;0.0012156296370322349;151.0;0.10224879003048633;0.03529499868790546;0.0012494916038888022;153.0;0.10927202627838697;0.03911830816967035;0.001534879242558159;159.0;0.1129201132737496;0.03820804193048391;0.0014644852235115738;160.0;0.1127975039885653;0.0360790168495603;0.0013058950453234902;161.0;0.11462221685616081;0.031979686510848766;0.0010257073125342824;164.0;0.11051726675568169;0.026283595775883007;0.0006930838228189176;153.0;0.09507868364188701;0.08352867154751123;0.006998906287424733;143.0;0.1566299256840837;0.08004784260190817;0.006427995447534746;146.0;0.1502556789992691;0.06877394844382007;0.004745234835645159;139.0;0.14218961230114924;0.06169929474482612;0.003817825946205057;145.0;0.13682395064561828;0.05543813354948318;0.003081707632315526;149.0;0.13046299785021953;0.05230352493367475;0.00274246152566448;154.0;0.1279074511323026;0.048802304346759987;0.002387228551332886;153.0;0.12444014446705266;0.073933887440817;0.005483427149957885;150.0;0.15128917738702183;0.050774490770540893;0.00258506722094621;152.0;0.13358002224054083;0.06123626376933241;0.0037611036545376828;147.0;0.14315778327907672;0.07214099924665576;0.005220844861037318;155.0;0.1515480645954838;0.06723023378742184;0.004534595830895789;159.0;0.1535547704787039;0.06711681173107278;0.004519134483442344;152.0;0.1578813518695549;0.0691177589808245;0.004791760327539462;150.0;0.15738993438086762;0.06465139721583013;0.0041925053944988295;150.0;0.15035366491370028;0.045829850076718436;0.0021049923217039673;156.0;0.1276212299729876
0.027922496727963316;0.000782175010672886;153.0;0.09914549916573767;12.0;0.024217246301795097;0.0005883014744221476;157.0;0.09261849792968953;0.02306830167813353;0.0005338264955218176;153.0;0.09199985130600852;0.025541525963461164;0.0006544987560805376;158.0;0.09462269136117007;0.021489406073313785;0.0004632129515330113;151.0;0.08886732305794821;0.020167678050446194;0.00040802099178074893;148.0;0.08704900025527541;0.01998807131285492;0.00040066332433524377;145.0;0.08472039721956665;0.031872550720841865;0.0010191405384728856;157.0;0.10358762306014421;0.03529723055306424;0.0012497785216519452;146.0;0.09566802427907785;0.03844045092297906;0.0014818342407339864;143.0;0.10177416795779257;0.03475388582156436;0.0012107678345829585;147.0;0.10292367359355815;0.03914361578978356;0.0015361322744340286;153.0;0.10516875614321726;0.03836133384322705;0.0014750072730622464;156.0;0.10442840000153333;0.0336898229986908;0.001137990884901775;147.0;0.1018493299496007;0.028979032682537424;0.0008420604015755591;153.0;0.09725160226935739;0.026747465946588257;0.0007173288055494316;151.0;0.08926256800288275;0.09370304145728123;0.008808827419854774;133.0;0.16818332500280742;0.0897806040295459;0.00808560592069988;142.0;0.1612028117166375;0.07772249730684153;0.0060592074145587255;137.0;0.14998484563955983;0.06951158199684235;0.004846756850152491;145.0;0.14220230843717369;0.06267078884358666;0.0039402143291030565;143.0;0.1362309699809693;0.05858572715113164;0.0034430937569018085;145.0;0.1334565301184561;0.05405557431950109;0.0029315427395403913;146.0;0.13018096314490055;0.07334618903429643;0.005397420148695431;136.0;0.153391930853705;0.05556052280930873;0.003095301116296534;158.0;0.13413073313462825;0.06402199843345673;0.004107213179113445;152.0;0.14065177576512125;0.07516354215616253;0.005659939257566726;152.0;0.1493893177116041;0.07653992332789561;0.005874163743532981;158.0;0.15462673894563292;0.07239545839907402;0.005255835994002665;157.0;0.15788243573332128;0.07157495027556195;0.005134135309997016;151.0;0.15651911591748813;0.06583678918337557;0.004346058205825183;153.0;0.14898038067931718;0.05184809781218955;0.002696381799668091;152.0;0.13092612292354688
0.02694893270430791;0.0007278376134094635;153.0;0.09583241147303162;12.0;0.02305997309387131;0.0005330819928780558;156.0;0.08995628376113896;0.022046818692390616;0.00048719831998068116;147.0;0.09006240850309499;0.02380236674349898;0.0005680668095425976;150.0;0.09212573273119543;0.01983342174685158;0.0003945041218678454;155.0;0.08598492777705109;0.0180320087057596;0.00032612223068498086;154.0;0.08384061301639589;0.018066908258976076;0.00032740784789555736;150.0;0.08211792852881702;0.030535551257540153;0.0009340175886677018;156.0;0.09956434724835504;0.03366425733550813;0.001136748169079536;156.0;0.09226627793737881;0.036381525295959866;0.001327788348193341;158.0;0.09541363146503347;0.02959344230873694;0.0008785234395961782;154.0;0.09311983068776747;0.030253473037949234;0.0009179370771485815;155.0;0.09496224111493162;0.02932136873702015;0.00086190946961867;154.0;0.0952365662093537;0.026488788366070524;0.0007037143506246281;150.0;0.0951403062125188;0.02392333302105793;0.0005740032650135062;155.0;0.093653188163531;0.024606954590643586;0.0006074481948781075;154.0;0.08542046175252291;0.07414746933017827;0.00551486594796137;141.0;0.16204201679352476;0.07057325140570068;0.004996584393074463;143.0;0.15427324256016092;0.06131919010549409;0.0037716818434698697;145.0;0.1406239026442712;0.0557368603259064;0.0031157569129342494;150.0;0.13256763115011147;0.051908636718407807;0.00270210541488756;149.0;0.12835914368317508;0.04864286195536969;0.0023731473836644513;150.0;0.1255361705016539;0.045311021420048114;0.0020591470504219755;149.0;0.12278969399452201;0.05936658347174233;0.003535831322975572;139.0;0.14828530234987017;0.04491040938635371;0.002023543607218582;154.0;0.12774885906177535;0.04888529687337529;0.00239740694866282;144.0;0.1322530694028228;0.05765934515503711;0.003334950569075951;151.0;0.14142899274580636;0.0627808177384135;0.0039542200065393164;155.0;0.14916480559288134;0.060948480025395525;0.0037268788459826415;158.0;0.1526413438039431;0.06116353598975972;0.0037530923284807612;158.0;0.15111702898274643;0.05649958465771176;0.0032025302612919064;156.0;0.1441239593625627;0.04359340031226471;0.001906410442255707;155.0;0.12662906544165184
0.021970241726682025;0.0004841503619638652;173.0;0.09109605496686994;12.0;0.02036972822159584;0.0004162592888933522;176.0;0.08755135254199768;0.022256322981204047;0.0004969607870591408;163.0;0.08915517874855308;0.024684607866975156;0.000611298516188733;161.0;0.09348273667925436;0.02088266593227076;0.0004375082944668614;165.0;0.08781657786590875;0.01874820441832958;0.00035264075382289694;168.0;0.0846865360684039;0.018192084677602388;0.0003319854310187652;161.0;0.08415438458992786;0.024544213296313525;0.0006042770085852516;165.0;0.09306832651739191;0.023684372831277972;0.0005619895676669962;159.0;0.08789763713646784;0.02431229417636807;0.0005924757129131277;170.0;0.08666900080748453;0.021071083080441793;0.00044486315732088287;161.0;0.08543551231284069;0.01951519100911119;0.0003817016082914519;166.0;0.08583989904413017;0.01970332167564297;0.00038911266828522376;157.0;0.08764179757696829;0.020899331152656624;0.0004379601768657011;157.0;0.09150019003059279;0.020709837386951747;0.00043005969080000704;165.0;0.09243545897025245;0.021697640765466784;0.00047194974062536154;156.0;0.08751137446904547;0.05621614910757398;0.003167075148407429;149.0;0.1441738524729234;0.05776903783003552;0.0033463491117893436;150.0;0.13923575517555584;0.04728919450822341;0.002242699490772392;163.0;0.12494156651426645;0.04126273993876739;0.0017078858699579587;155.0;0.11773239807007327;0.03808039629329748;0.0014541452771551385;160.0;0.11359823681955081;0.035522062404715324;0.0012649922330835721;160.0;0.1106168087060904;0.03345546722083203;0.0011215444055535956;160.0;0.10825051381182775;0.04871445371043994;0.0023753113655509105;156.0;0.13389168556572642;0.03313776671093311;0.0011014751987164823;153.0;0.11670324448492204;0.03741018760729413;0.0014040343295575008;149.0;0.1204362156530325;0.04459779203365693;0.001995406291717362;152.0;0.12809941088828977;0.043683866834534825;0.0019142847398146488;157.0;0.13070766876939424;0.044050983364971194;0.0019464779579127548;158.0;0.13620374057165455;0.043598989117146505;0.0019070552849629568;154.0;0.1373500219377878;0.04205411700317013;0.0017743426146337995;159.0;0.1334715461825628;0.032263378458073186;0.0010437835282829583;164.0;0.1135743555214438
0.02223286081878576;0.0004956427545920128;166.0;0.08840990471866551;12.0;0.019796203476221887;0.00039311138313532373;171.0;0.08460098211682181;0.020620889582887224;0.0004264682641803479;171.0;0.0873907172045265;0.023089800711781308;0.0005346330682734155;168.0;0.09286177557122292;0.020518134619640357;0.00042229046105432034;168.0;0.08852810853015027;0.019523069977337618;0.00038232231875664547;169.0;0.08518785101598861;0.019343455579418398;0.00037535275797410017;156.0;0.08453180969909495;0.024450152613761333;0.0005991896167671149;149.0;0.08894435356809675;0.023333626905536378;0.0005455070347490387;157.0;0.08474140022232632;0.023726585073836494;0.0005639464089257349;158.0;0.08397322759102573;0.02101899843343111;0.00044299823914593293;155.0;0.08379188309018387;0.01929704436026657;0.0003735473321605657;169.0;0.08315780402788903;0.01984256279723727;0.0003950187322393781;160.0;0.08524617375287451;0.022489628397761873;0.0005074369614326512;155.0;0.08885685013537213;0.02257938298660122;0.0005114998548056768;160.0;0.08890416533647474;0.021970788423007037;0.00048423472707113447;161.0;0.08622438990218852;0.03844315570433775;0.0014826494981661303;160.0;0.11014127007775662;0.042717722302274524;0.0018306910094069318;156.0;0.10854358160764187;0.03421469147126241;0.0011744200912141539;159.0;0.0988189780436371;0.02949304755911283;0.0008726738306763717;160.0;0.09483818562488505;0.026773798092503666;0.0007191214287292612;163.0;0.09165175037299601;0.02618530458237134;0.000687817615546985;160.0;0.09198266268805713;0.025279801037773986;0.0006411446985531168;164.0;0.0902133425095555;0.034319704350012775;0.001181693149267476;151.0;0.10300087099599649;0.0257675689110428;0.0006659887347440471;153.0;0.09721779188556784;0.02778595885048359;0.0007745597678205661;163.0;0.09714207031250854;0.032934109784358165;0.0010881669335892966;161.0;0.10020150999126926;0.03210311721352529;0.0010339686330543187;156.0;0.10077292463472313;0.030698370272164127;0.0009454084288052273;158.0;0.10240787835693653;0.030553658443933998;0.000936422447256275;156.0;0.10572282875412323;0.029100789898046858;0.00084961272271024;163.0;0.10424479716752635;0.02511028605531402;0.0006324508058459492;159.0;0.09562230617336787
0.02218227994987065;0.0004929148798097168;150.0;0.0865782247719075;12.0;0.01787298339380387;0.0003197811713660807;152.0;0.07981651273836136;0.017415466404404296;0.00030395854987281867;152.0;0.08214296938238373;0.01941131467606902;0.00037782211890228736;159.0;0.08527934728549846;0.017592381913640875;0.0003101313862204636;155.0;0.0816285526992257;0.01715338232858213;0.00029498606996580063;156.0;0.07870553899988621;0.017437441155022815;0.0003047035725268368;151.0;0.07821242009397926;0.024932201112146838;0.0006227331704457098;139.0;0.08810024831941997;0.01791507948947024;0.00031945852052061126;148.0;0.08055340025815648;0.017418748950333907;0.00030270506281545;146.0;0.08019487480784505;0.01656418716665845;0.0002739598105555456;151.0;0.0795414146464384;0.017381290863926355;0.0003020439943764613;157.0;0.08166517891088289;0.018715106913911702;0.00035078779000858055;162.0;0.08517651868197365;0.021739246346070464;0.0004735461541308406;154.0;0.08759866974452428;0.02162201821444722;0.00046848378062318014;154.0;0.08793414762573154;0.01927587346122769;0.00037081622810550713;151.0;0.0851046082977028;0.01928850036736185;0.00037092530476655724;155.0;0.07463055618391755;0.01995569383767301;0.00039701207706122434;149.0;0.07481428909446286;0.020275760985868377;0.00041095067923341576;144.0;0.07766571681858546;0.022530798705927165;0.0005088048879803157;148.0;0.08224743665646199;0.021080499067097087;0.00044530437365558753;150.0;0.08335458469368937;0.021193371581139098;0.0004495771697181303;158.0;0.08485019190488984;0.018024240031388795;0.00032513898572968314;161.0;0.08075032564923965;0.01808730320660055;0.0003262083099157168;144.0;0.07119968624994961;0.01656648152605167;0.000274974238014397;161.0;0.08143736082834871;0.015892314392388324;0.00025312409992170174;168.0;0.08011749081884688;0.015368244787404697;0.00023665927632090443;165.0;0.07885039053054232;0.015740613056365895;0.00024831581968644517;159.0;0.08040219795654743;0.015908783880790953;0.0002533112165290351;151.0;0.07936689619379919;0.01653645561412793;0.000274184034974852;156.0;0.08063173763492551;0.017178171090330898;0.00029585346808248293;160.0;0.0809152655223999;0.0162382199473779;0.00026379013899933176;162.0;0.0815841966131747
0.02670618341482025;0.0007141038113286924;154.0;0.09617928324937051;12.0;0.02167870997840716;0.0004709415136449671;152.0;0.08691988845651802;0.022022248987278805;0.0004863720672301659;152.0;0.08855568368699779;0.02486577164828165;0.0006203057239789838;155.0;0.09255318378940083;0.021998530073581154;0.00048551646282583253;152.0;0.08690208801011502;0.02101355079390808;0.0004429611786531254;157.0;0.08404147410034803;0.02127209124749215;0.0004539650872693817;158.0;0.0852450697406777;0.031884740550553625;0.0010178680964825055;148.0;0.09812382609095457;0.036726565851558986;0.0013532975585729184;162.0;0.0971156187748075;0.043297665523002835;0.0018808455140931274;161.0;0.10379303772586898;0.033769726386861404;0.00114408753061431;161.0;0.101197780841937;0.027116345218548003;0.0007377066099230187;153.0;0.09883994377974231;0.028319592306369795;0.0008045472975472842;162.0;0.10169732367163946;0.02939831338541291;0.0008670472490566318;154.0;0.10260552118795788;0.02554034526029155;0.0006540992269979636;162.0;0.09692640646686618;0.028032189266415552;0.0007884047486798417;152.0;0.09334441382499921;0.05878148048680964;0.0034665329433362434;136.0;0.12639668466382567;0.05371708661688614;0.00289495194393947;144.0;0.12260270711285687;0.05022221844811882;0.002530278039151591;155.0;0.12199146169367135;0.04746729248301645;0.0022604292039603373;150.0;0.12119417593834489;0.042742086929009326;0.0018328582075682208;149.0;0.11854203316606465;0.03900441954076205;0.0015261761396967736;158.0;0.11518247678828163;0.037007311165740235;0.001373837573594775;155.0;0.11093630150600592;0.06513954625266843;0.004256989061522855;144.0;0.13513103035651647;0.05677985704781005;0.0032310791506802968;163.0;0.1248087656062459;0.06013136944289989;0.003623841166113256;165.0;0.13377021216866142;0.06936871326557174;0.00482624653954218;162.0;0.14016994488205337;0.07289209759249266;0.005330046170667979;160.0;0.14246468235480328;0.06224769291516867;0.0038874606738896057;150.0;0.13830723397486938;0.05605470671861964;0.003152035827480849;150.0;0.13501106407916633;0.050986381739418093;0.00260787760443948;155.0;0.1306989449091764;0.045640045760166656;0.0020895085217263196;175.0;0.11506529421997133
0.03967389551334888;0.0015776750298403086;151.0;0.1133693603300747;12.0;0.03111835896908844;0.0009702024217417756;144.0;0.10136062092560727;0.03044321909972466;0.0009292144913736588;151.0;0.10290248479112304;0.033331900409990206;0.0011143323184421771;148.0;0.10794489562274619;0.029029803031422465;0.0008452175884494231;151.0;0.10030733094069298;0.02738818166271156;0.0007522053484886359;153.0;0.09694116206693369;0.0273448176739681;0.0007500444451682902;154.0;0.09695494756958326;0.04691280074044852;0.0022064687233621662;145.0;0.11773092592863253;0.04466443369418737;0.0020014035939355575;170.0;0.10909390214059624;0.0514087615015628;0.0026515279178960945;170.0;0.11697001946721688;0.044698475214597556;0.0020045739330529326;156.0;0.11736632732643994;0.044420798554214797;0.001979257563919423;149.0;0.12027155480768552;0.04187183835159548;0.001758879867274267;155.0;0.12129472118682322;0.04067399504327294;0.0016596847274323817;149.0;0.12130836927955393;0.03744215369916837;0.0014062559114488662;159.0;0.11292136172765099;0.03395916473145001;0.0011568258436173218;152.0;0.09975185495068457;0.08117387686553307;0.006610316971158921;148.0;0.16145126978331542;0.07616772033229333;0.005820435042210861;147.0;0.15628891271039067;0.06333315414388757;0.004024002507716488;154.0;0.1457714732194202;0.05677102430844407;0.0032332363257135638;152.0;0.13904711162749173;0.051699217919451396;0.0026815554474357455;151.0;0.13340045537367123;0.04836524628062933;0.002346836289861831;152.0;0.12991468529145256;0.048147300492172904;0.0023256555810627876;150.0;0.12737232021766842;0.08442668581758303;0.007150225821197845;152.0;0.16616423916163087;0.07058996773022695;0.004998776949719395;164.0;0.14761886809785776;0.07447766401287713;0.005564147673282321;170.0;0.15860152474586287;0.08447055783991265;0.007157550159047616;168.0;0.16956242797842216;0.08979322097467919;0.008088599538272609;161.0;0.17320515036510076;0.07903968023701503;0.006266489937119333;159.0;0.1727139449299013;0.07144938725667625;0.005121216048489004;152.0;0.16681489095387256;0.06606348085079687;0.0043773209492163475;154.0;0.15758983817878885;0.0561239216148983;0.0031602234922845683;171.0;0.13338137326621896
0.044311011968186625;0.001968063985392628;138.0;0.11488915109022917;12.0;0.03458794880949865;0.0011992921965323568;130.0;0.10346865762627862;0.03257625620833704;0.0010638510100621356;142.0;0.10418328978611054;0.03407945292372936;0.0011646101860722199;139.0;0.10703534458549535;0.029985211845786907;0.0009018147345357377;145.0;0.10191606893759098;0.028520450157236345;0.0008160414983517474;146.0;0.09933425682261954;0.0283420176577584;0.0008058926990069443;153.0;0.09843787320989054;0.05141075951857046;0.0026496208061591287;136.0;0.12056240069293718;0.03595214245781308;0.0012959289389801692;156.0;0.10663978539950009;0.03996991367813232;0.0016021802245167818;159.0;0.11170910793187086;0.04147604799998937;0.0017257224138881797;150.0;0.11790804782888027;0.044842188125859855;0.002017133876352504;152.0;0.12392611379125067;0.04304585686969783;0.001858859286411355;157.0;0.12673619141500667;0.041609286967449546;0.0017369528548064142;142.0;0.12595794527613569;0.03931686805628577;0.001550757176137397;133.0;0.11762954548269014;0.03055478250711094;0.0009361139613798145;147.0;0.1000316753279194;0.0826980368293052;0.006861016276165795;162.0;0.1571594060206441;0.08114808477730787;0.006606455492453602;159.0;0.15379947643113978;0.06983262670096314;0.004892346121679453;158.0;0.14269442241834948;0.06361874575629206;0.004060465495639282;157.0;0.1373637661220464;0.05834359182358546;0.0034151052627047636;154.0;0.13139488082021383;0.05461828738611899;0.002992908762588992;153.0;0.12791419110074223;0.05240383944688319;0.002755134111931558;151.0;0.1257211879751437;0.08326999266847712;0.006953353334553903;151.0;0.1568168635037179;0.07662380638087013;0.00588721589655168;151.0;0.14588238789961988;0.07278318122285224;0.005312701760991489;160.0;0.15132645409418843;0.07130005478837156;0.0051000476453348376;158.0;0.1579502803404994;0.07078743288961997;0.005027143360141207;151.0;0.1612007685747226;0.06821891778228924;0.004668593562398532;159.0;0.1627183412640119;0.06488805359806497;0.004221057089183992;147.0;0.15886519687006767;0.06040018122367118;0.0036567275822095113;148.0;0.14910083992352227;0.0624565354710498;0.00391313196900221;149.0;0.13372727148255367
0.036375852574651604;0.0013272311487227356;132.0;0.10740734724178856;12.0;0.02917274179492721;0.0008537840401019186;129.0;0.09863764936633627;0.027986206394686516;0.0007857406055542992;144.0;0.10045632189154798;0.02919028488265292;0.0008546332132055528;147.0;0.10227077076508358;0.025421718898159543;0.0006481601523261496;145.0;0.0975955697444917;0.023663424097140708;0.0005616411179064648;150.0;0.093309559813061;0.023206607616347526;0.0005400772549911597;150.0;0.09179067516934891;0.04001562836795678;0.0016061776200841974;133.0;0.10826163653869376;0.033217710168298546;0.0011061500134491582;154.0;0.10182995419344543;0.0361085001956654;0.0013070563035642076;159.0;0.10617637837582779;0.03362406677694479;0.0011337416269355848;155.0;0.11087364703970583;0.035719063878503064;0.001278320526695724;152.0;0.11492577279118041;0.040129096555528355;0.0016153126512984198;145.0;0.12241937169545589;0.041777585646807704;0.0017506688789680348;141.0;0.12327615963436069;0.035978402103317444;0.0012983835533820676;131.0;0.11252599775751083;0.026857392039116572;0.0007229750270148416;148.0;0.09567928536602432;0.06643822659179521;0.004428244894279981;155.0;0.14346519797887933;0.06598499302738306;0.004368251042673502;163.0;0.1388469820408949;0.06049524986434092;0.003670107778968759;171.0;0.13149769737258998;0.055433135268399256;0.003081705582523958;169.0;0.12846098572714504;0.05088920804482538;0.0025979577597872562;161.0;0.12313702398179782;0.047289105693901164;0.0022435246071739667;162.0;0.1195487203931547;0.044892053401309716;0.0020218765806033533;161.0;0.11875306505812033;0.07217920885969262;0.0052259361827760335;144.0;0.1468025958306648;0.07368550777178427;0.00544734052478262;146.0;0.1384773092779178;0.06783973733922735;0.004617120283563108;158.0;0.14430752400246108;0.06396404290799301;0.004104812573522496;154.0;0.14848732483915233;0.05790950492118913;0.003364245681623037;155.0;0.15038624259626393;0.05705510869865942;0.0032648662466034737;161.0;0.14754569981924578;0.057709556528994066;0.0033395360208969727;152.0;0.1467525819670988;0.055142789354115866;0.00304701455392253;150.0;0.14126171532796372;0.06100486571584572;0.0037334927574891063;139.0;0.1312887309871214
0.03589884533065377;0.001292911027154521;147.0;0.11015702323938764;12.0;0.028423988724769877;0.0008105249881968365;143.0;0.10038240099811194;0.025462596283369054;0.0006503998250178436;145.0;0.10061797857809601;0.0253756243701633;0.0006460341110643939;148.0;0.10247324536230129;0.022229742002428724;0.0004957921342705004;144.0;0.09588945681994582;0.02079005463778682;0.0004336048430971287;144.0;0.0911818818501036;0.02119900127086816;0.00045077024966992744;145.0;0.09030192604893603;0.03945986716152994;0.001562173952042419;151.0;0.11238745042647402;0.032297074989375334;0.0010454357246031745;154.0;0.10060135771937773;0.033748511812750154;0.0011412709043688712;159.0;0.10573150295025104;0.033306862037405044;0.001111866629526504;157.0;0.11460792636392975;0.03806952197852827;0.0014533075808333474;149.0;0.11894501929940265;0.04306257811369297;0.0018594537936062932;145.0;0.12416994797159017;0.04493328035835414;0.0020250246492622536;149.0;0.12762936485832946;0.0390693152577258;0.0015312011242234874;150.0;0.11737509442487758;0.02694734461001628;0.0007279395078455989;153.0;0.09558760520075381;0.0469235701547975;0.0022085548349271753;149.0;0.13094641300202486;0.048270824689036665;0.002337446678681438;157.0;0.12908106236041922;0.03990358654544784;0.0015972323121459903;164.0;0.12034190084326382;0.03576285880704347;0.0012826255022169955;166.0;0.11741230461085155;0.03426390989112357;0.0011772319826530953;158.0;0.11377245554005538;0.03365984646979173;0.0011355733845669152;159.0;0.11212464605013005;0.03324600676603744;0.001107592868841739;163.0;0.11225888096832416;0.050748795405379216;0.0025784971857322684;153.0;0.13168569790464757;0.05401046524911442;0.0029266444340683272;153.0;0.12318683240535612;0.05544491156642559;0.0030840600629089454;153.0;0.12944548704101225;0.06171032665754583;0.0038202344493813755;152.0;0.13866345868628985;0.05642824004590994;0.0031938146971247187;152.0;0.13917423958047903;0.04712651014686593;0.0022267867045058444;150.0;0.13714297981217982;0.04793794377697926;0.0023041908295799007;154.0;0.13745524798600783;0.04804700924589574;0.0023150837093068245;158.0;0.13327140432207277;0.044947747976556506;0.0020265505003222873;137.0;0.12022696166353014
0.04229609849014037;0.0017948671975337054;163.0;0.11873839338034427;12.0;0.03492700997260659;0.0012238425603698876;154.0;0.11128250628670747;0.03139107143031335;0.0009885228510002502;154.0;0.11071179115767851;0.03148706377884037;0.0009946410928121272;145.0;0.112840872848102;0.028666585200063315;0.0008241642141398886;147.0;0.10534510479200689;0.026562907953011937;0.0007073854706052726;139.0;0.10015148491870991;0.026907946602067315;0.0007257991494113318;146.0;0.0997957507376543;0.0449312120196726;0.002025481387223588;161.0;0.12299094604458656;0.03240961263087934;0.0010528093538841167;149.0;0.10614291983230827;0.03552830285999582;0.001265661067218599;147.0;0.11240167107108813;0.037685861277986156;0.001424357838008129;155.0;0.12195569104706278;0.043519199142668545;0.0018998307536786728;147.0;0.12866156518106087;0.045448547633051166;0.0020723205673590277;157.0;0.13275566927308613;0.04353091187290706;0.0019010490232540362;156.0;0.13523839581751926;0.03863107109299698;0.0014972301655204652;156.0;0.1248943371481167;0.02970602745617947;0.0008845126433051841;143.0;0.10127590641657688;0.06712545954495046;0.0045205401802082545;154.0;0.14332896275249676;0.07018102269536856;0.004941333817479063;151.0;0.14367681561778153;0.0578028597270971;0.003351600162124269;156.0;0.1321552225741042;0.05016405568757961;0.002524209345328713;155.0;0.12434723397219868;0.044794646466709824;0.0020125945635625342;144.0;0.11860197966455721;0.04242946782477986;0.001805953766356636;145.0;0.11590399512366566;0.040788455353086076;0.0016688741320776016;148.0;0.11463886853073094;0.06061844943283692;0.003686615446869798;153.0;0.14098588269532383;0.05806390229756046;0.003382397761333512;153.0;0.13223531068475866;0.0608431817009009;0.0037139980267027802;147.0;0.1366856722550026;0.06907061880646422;0.004786175656578166;155.0;0.1434328279651198;0.058070624916000145;0.003383145502237386;144.0;0.13968288216532967;0.04444320424625939;0.0019809491642966757;140.0;0.13732604683661168;0.04789509946756319;0.002300648452776103;148.0;0.1405515140891316;0.04727175328201627;0.0022414843977110093;153.0;0.13660440845872035;0.05434610143161097;0.002963000008011474;144.0;0.12568559844335675
0.0390177632642754;0.001527362202417891;154.0;0.11371825070579772;12.0;0.03440461890859584;0.0011874936897559253;157.0;0.10868058606349593;0.031430187207750086;0.0009909251736219832;159.0;0.1072626486481738;0.03156380188754239;0.0009993928537281162;150.0;0.10901400050752005;0.028853131450313027;0.0008352164237060907;162.0;0.10197582325523431;0.026695144245555552;0.0007149549872915009;155.0;0.09802045867398577;0.02612565142868996;0.0006847649392659808;152.0;0.09685259926532151;0.038918674177409046;0.001519582859430274;146.0;0.11590482763944733;0.032138684749821275;0.001035738101043995;146.0;0.10339873944414077;0.03536085626030773;0.0012541689943008673;136.0;0.10605353771080922;0.03526810079302692;0.0012477566480803624;151.0;0.11026804925278473;0.040298029809214306;0.0016290212307133202;141.0;0.1168089934886226;0.039152802651099335;0.0015378474176178025;148.0;0.11987096612934783;0.036020418640135415;0.0013017258166118256;147.0;0.12224887910486895;0.032888516271795405;0.0010851933203071588;147.0;0.11411906522962778;0.027922837925138062;0.0007820190857947895;138.0;0.09704826397392659;0.07005511950757015;0.004923796184099618;158.0;0.1461036800996664;0.07133414327513724;0.005104894930951424;149.0;0.14295965453768308;0.05991204933659911;0.003600043636522298;152.0;0.13061554198300082;0.051768571683150036;0.0026872727978665177;146.0;0.12152229876329841;0.044325193810782496;0.0019690136001297353;143.0;0.11567078466770085;0.04145511909174836;0.0017217233902688596;144.0;0.11205390310101508;0.03904946825215803;0.0015275686213777001;145.0;0.11009078237532134;0.061067922685385086;0.0037412582064879863;153.0;0.13891075117679066;0.05739747033417882;0.0033050793736920884;149.0;0.1322822063858394;0.05902897959625202;0.003495762095002265;150.0;0.1362494722887227;0.06467412243512766;0.004196320906459329;159.0;0.14027489399459803;0.052780894818811035;0.0027949281678653483;152.0;0.13670221891621223;0.04462121248098743;0.001997570966810917;152.0;0.13337038078351712;0.04527313364333184;0.002056327033229107;151.0;0.13247768498688245;0.044631715100671106;0.001998527948188923;155.0;0.12744281895485005;0.054362258834824075;0.002963344717724845;153.0;0.12408573872289058
0.030878929084766464;0.0009566021059141071;150.0;0.10185768804794075;12.0;0.027338696301865854;0.0007496667407588496;164.0;0.09514469253940773;0.02447030483597564;0.0006005599299598636;166.0;0.09294711825060548;0.02363738562458643;0.0005604142027141768;158.0;0.09401166798703131;0.02075491196369151;0.0004318506189156211;173.0;0.08692281259021531;0.01962070758016095;0.00038575923428408503;170.0;0.08539504852484937;0.01934425402403106;0.0003749938777816043;161.0;0.08400889643500681;0.031713496288952286;0.0010089921516783845;146.0;0.10361816504403294;0.02849642885743117;0.0008133162817816981;160.0;0.0955227406518944;0.033437670230453014;0.001120685923611493;150.0;0.10009679230053371;0.03205050044195547;0.0010293267077600226;156.0;0.10493062172179585;0.03460588189711204;0.0011990174607433182;150.0;0.10608863207261328;0.033359580555793224;0.0011144115538510304;152.0;0.10935177134952642;0.031636953979963224;0.0010035971567101823;144.0;0.112944609158947;0.028880511078105662;0.0008363518788089593;147.0;0.10517511910155201;0.022436731148455083;0.0005038338566019673;159.0;0.08847221233108689;0.06891583128951273;0.004764688176470247;150.0;0.14038666225501611;0.06548183064996525;0.004301605710033034;147.0;0.13663307598571647;0.05628257744545114;0.003177661903003802;148.0;0.12686507016488804;0.050560825898003765;0.0025634872953467537;148.0;0.12053606962646016;0.04569343884375546;0.002093574555593302;150.0;0.11541781037916175;0.04340381950774918;0.001889096669386896;154.0;0.11233888530004646;0.040567986176427526;0.0016501299381690728;159.0;0.10963114586661758;0.05763384830964321;0.0033320971250423224;159.0;0.1310487324538535;0.05923407783565945;0.0035197905346051883;147.0;0.12966355392119527;0.05915979289908772;0.0035113430028273353;138.0;0.13472097826720852;0.06176604937454564;0.003827551717898928;141.0;0.13653417219434416;0.052922132282921655;0.0028098617829229416;145.0;0.13156602388506147;0.04694303941573527;0.002210828513871592;153.0;0.13043662896499925;0.04457035254770935;0.001993008980397945;159.0;0.1282083170124284;0.04266410293329668;0.0018259163770111874;160.0;0.11987661879438849;0.050963214962067765;0.002603886326837385;155.0;0.11912791143291936
0.03200872918981976;0.001027896928866477;148.0;0.09793177449155842;12.0;0.025642204725252218;0.0006596697550349575;160.0;0.0912267417842121;0.024221448921102538;0.0005885924298737013;164.0;0.09088922249264393;0.024976282045782186;0.0006258490733086487;159.0;0.0925450229568141;0.021058312122900758;0.0004449005045836123;163.0;0.08526699448792298;0.020005847838970914;0.00040147986174797365;160.0;0.08308102103795617;0.02033230618447318;0.0004145053008819556;153.0;0.08245506125091337;0.03425555080103731;0.0011772542965695137;151.0;0.10091780729954239;0.027589887672995302;0.0007636856062472584;157.0;0.09345854511233471;0.032037382493591664;0.0010296758716617888;166.0;0.09958471101459604;0.030627275597385747;0.0009407028373912681;162.0;0.10483652734193005;0.03625831243486415;0.0013189337854866312;155.0;0.11199604470054701;0.03693484139919618;0.0013685084903718625;157.0;0.11768378777766024;0.03518842196974286;0.001242257684423962;154.0;0.11925551488154243;0.03054751842771047;0.0009361403959509418;149.0;0.10857105031958585;0.022199283658804966;0.0004944172596523412;160.0;0.0875711558612496;0.0753737149784287;0.005699632620310905;155.0;0.1454676709199192;0.07385766116778926;0.005472146707585371;153.0;0.14473172259923095;0.061837333208694126;0.003835053343209107;154.0;0.1332355230713226;0.05437107493914635;0.002964490480900816;153.0;0.1256039349254552;0.05080644401683907;0.0025886076252769397;150.0;0.12027984644869623;0.049661226954320514;0.002472912614401075;151.0;0.11782824880791522;0.04862637663119887;0.002370571762472983;157.0;0.11674050218906752;0.06406785946732611;0.004118087663342444;149.0;0.1383057504121227;0.07191195900777102;0.005186936248181021;150.0;0.13962789404500325;0.06693380873006413;0.004494792178511409;140.0;0.14148747850232665;0.06545971132341183;0.004297534886749912;138.0;0.14364348059914928;0.06078562872738356;0.0037058855471870395;142.0;0.1407466804864447;0.05698953550331933;0.0032583900571198166;149.0;0.13980036764353496;0.060186963252713936;0.0036343841310214845;151.0;0.14331805892338373;0.05664152412604384;0.0032187345052374274;146.0;0.13603296871414805;0.0652653406208854;0.0042710356934951375;153.0;0.13138581078913375
0.032266811331815234;0.0010441600855393982;144.0;0.09771825174833747;12.0;0.026380547708034833;0.0006972394598389234;142.0;0.09122127692210985;0.025685877242698694;0.0006608556881865932;140.0;0.09216133524846278;0.026679841145217244;0.0007133508428742171;139.0;0.09386454530482943;0.023444831337927935;0.0005508876753701065;142.0;0.08807181837581221;0.022723705033802076;0.0005177882104161323;149.0;0.08548393448824024;0.022856814164581955;0.0005239444638592901;149.0;0.08497454587316275;0.03526856051027417;0.0012475768342584542;144.0;0.10272493007191134;0.026874495439190172;0.00072412061911617;139.0;0.09375201727414059;0.029029850289443365;0.0008438727394845584;146.0;0.09677123436223017;0.027726133531556826;0.0007701348881611382;150.0;0.09802421594195224;0.030840529055020008;0.0009529771226664293;151.0;0.10595015570576631;0.03125212172977163;0.0009789082992976794;155.0;0.11039385548906744;0.03163905779348565;0.0010040791210093433;151.0;0.11138319246147076;0.029623141423904594;0.0008801008968218998;138.0;0.10551627233235751;0.02358017225311556;0.0005576099488325441;144.0;0.0886727076219996;0.06543974943114622;0.004295390624327662;148.0;0.13739763100405505;0.06527164294645954;0.0042735353622903585;147.0;0.1354053688329452;0.053907064283247576;0.002914811068655222;153.0;0.12505253999745766;0.04624325141368926;0.002144507694208264;157.0;0.11991893246252981;0.04225337012886524;0.001789247777668101;156.0;0.11595665872315931;0.041923420658272946;0.0017612487524754966;153.0;0.1148056861914476;0.041868943154647405;0.0017571201348212512;153.0;0.11469445705687388;0.06041566152119277;0.0036612531985412257;146.0;0.1352708443401264;0.061309347872781805;0.003766397319570046;147.0;0.13376651617214338;0.057392335632988636;0.003302828791083391;153.0;0.13411333200751813;0.05844062472525367;0.003423103776658597;158.0;0.1396637189523909;0.056711778920772324;0.0032232957227711395;157.0;0.14071174407727088;0.05478308524306108;0.0030097635243642898;152.0;0.13793164126684082;0.057027316264547906;0.0032621113041796626;147.0;0.13809003394983652;0.054746455900756635;0.003006551523775794;154.0;0.13453825057053373;0.057689480613233236;0.0033311251935385293;151.0;0.12812431907824567
0.08348296851844915;0.006984548592112209;141.0;0.13133386162925575;12.0;0.07635896052145674;0.00584249688090853;133.0;0.1276133365093179;0.07254843991606377;0.005272169320859596;134.0;0.13092211412398974;0.07100804831406721;0.005047961430671945;137.0;0.1346138182598557;0.07055026652632235;0.004984451222097467;140.0;0.12775653735176892;0.0718492039557635;0.005171570443204262;152.0;0.1241036159726497;0.07484116241226293;0.0056117902261651606;154.0;0.12453719742541416;0.09368102667781147;0.00879484972486401;141.0;0.1387820242226896;0.22427684992024555;0.05031326941816079;139.0;0.16855501297260483;0.22771334104406513;0.05184739323835991;136.0;0.168082984147199;0.17720022485837367;0.03138115619290674;141.0;0.1622165898481522;0.13549109392146322;0.018345104075785074;140.0;0.15312811168907725;0.10753565383267338;0.011560783814653496;146.0;0.1461032082920865;0.09204047706983381;0.008478382021127256;140.0;0.1428749688251697;0.08180075192051622;0.00670034419693839;135.0;0.1372263884026577;0.15266444731861498;0.023300089487937978;138.0;0.14677209827635102;0.0953055184756945;0.009107348816031596;141.0;0.16248784057096963;0.09051282422826505;0.008213363712959743;147.0;0.15813454669269966;0.07974327268992137;0.006375799085911059;153.0;0.15461752324081285;0.07258975540101793;0.0052856537625774296;160.0;0.15056909142976102;0.06671429867350298;0.004464992123479301;161.0;0.14376511522484284;0.06400011068324105;0.0041093533372014495;160.0;0.1403763631692257;0.061670810754738806;0.0038157272039056576;157.0;0.13826388607412418;0.11227689507585935;0.01264376200245874;159.0;0.17595951455758266;0.07692402635342865;0.005936797091917681;160.0;0.1479606901612258;0.08408848104448433;0.007091612855118439;155.0;0.15570533790903554;0.10301499692657665;0.010630709981253263;162.0;0.17204868092797493;0.10620738223894115;0.011304214084954332;157.0;0.1737293975078934;0.08525097825923522;0.00728798857823113;155.0;0.16829394299463346;0.0810707652453547;0.006592879510027079;166.0;0.1659186990254822;0.08308012635664218;0.006923802063818013;169.0;0.16422628596035388;0.07319970192181371;0.005375766149651888;157.0;0.14314596642870636
0.09968437025807;0.009969167410827708;143.0;0.14866417299624293;12.0;0.09105482351354503;0.008317516703869472;144.0;0.14117080376477525;0.08709564594955249;0.0076103743141030964;141.0;0.14360697874504777;0.08664296272908648;0.007531602700243042;139.0;0.14685486689081995;0.08675400902918506;0.007550655747817825;139.0;0.1406040494620442;0.08850118712672315;0.00785806538133747;149.0;0.1376621003719537;0.0914496521417499;0.008390331838106132;153.0;0.13806103972683825;0.11155421524402054;0.012484569185217948;144.0;0.1591180827036909;0.2552377179650483;0.06535123119628207;163.0;0.18368524180832982;0.2641037022545535;0.06997212106074864;165.0;0.18586711627656063;0.22103466891290127;0.04900896792205528;141.0;0.1853255027768926;0.18059831624560616;0.032718983924184125;134.0;0.17638998530160402;0.1413457033226384;0.02004273629541197;146.0;0.17295736293841288;0.11513213278930723;0.013298307629458286;141.0;0.17009786142259012;0.097835472207937;0.009603091293688512;140.0;0.15700626804002527;0.18098157007374874;0.03285387623188455;159.0;0.16083753770407622;0.11578728920871094;0.013440273068575875;163.0;0.1874713334816209;0.11154925878571206;0.012478289043884877;160.0;0.1823123108023666;0.09759685525283453;0.009554649445776239;153.0;0.17752802977019727;0.08790397529639024;0.00775134692075848;151.0;0.17168399585938401;0.0794313298972172;0.006326864101193353;150.0;0.1631424020479794;0.07408912819213787;0.00550218970068934;152.0;0.15864101412281043;0.06972377726495924;0.00487227555719351;158.0;0.15569199481385812;0.1305503247310944;0.01709638008512091;158.0;0.20218314211890717;0.0821793743272617;0.006761794792102889;168.0;0.16209053704439955;0.08962617317326611;0.00805182071129948;149.0;0.16874251874055304;0.11102007377884635;0.012359474457050707;149.0;0.1850666659049186;0.11584873880178441;0.013455704324822355;154.0;0.19080547705631978;0.09670250873852927;0.009374537158754045;156.0;0.1901775059259697;0.09459204585671137;0.008968144177145709;164.0;0.18868433430413384;0.09641805058728034;0.009318031679250261;161.0;0.18680490669725755;0.07688019231834244;0.005914121430786168;166.0;0.15828170686349197
0.06635877417604352;0.004407493525487797;151.0;0.13483327394910338;12.0;0.05851436992267184;0.0034174859939194897;153.0;0.11982573672264832;0.05709987683318733;0.0032524196026077197;144.0;0.11741584178989432;0.05863129150832582;0.0034278281467418513;146.0;0.11722162551277063;0.05804042328538237;0.0033620647131793737;142.0;0.11409838999350166;0.05843080494048727;0.0034041045960673923;148.0;0.11212279624006094;0.05901687333055922;0.0034712454678104973;156.0;0.11196570450599101;0.07666950876941249;0.005891040051059826;162.0;0.14581250469446969;0.12884817028303636;0.01641812110080405;185.0;0.12941243884867934;0.14102453886476157;0.01969454812880758;180.0;0.13649029513233474;0.1380743587682047;0.01897003244153598;157.0;0.14232827427757463;0.12529854204330473;0.015649536535485016;151.0;0.1436043650839424;0.09843052019480168;0.00965882907970362;156.0;0.14691923337370694;0.07877075085051184;0.006199658077666319;142.0;0.1481989139650473;0.06348970169060465;0.004030245997868256;144.0;0.13560742069311366;0.10285832163027102;0.010485757645574263;183.0;0.11992026330978932;0.09218868440178168;0.008526403920842432;157.0;0.17142294719481824;0.08936455230469104;0.008011665860052202;153.0;0.1654568741644748;0.08005542230624953;0.0064295565932653955;148.0;0.16051255725334457;0.07259574594509208;0.005287361440850007;147.0;0.15573618716448018;0.06495661928713989;0.004233132443567234;142.0;0.148333219253029;0.05931854704496059;0.0035299709505553045;150.0;0.14502402986353835;0.05494759751868374;0.003027798597168684;155.0;0.14222260084718547;0.09416013363865497;0.008894721465361015;154.0;0.17669636210514827;0.06377073850304946;0.004076070262000895;152.0;0.15642081316518922;0.06489695216552432;0.004214420318519967;141.0;0.15748212876533585;0.0769339202386203;0.005912618197638149;142.0;0.16501588783450322;0.07748429417197072;0.006011686848698968;153.0;0.16904185478520373;0.07407141932644083;0.00549980112026266;150.0;0.17221292231417065;0.07810639051526655;0.006116420359689657;146.0;0.17093355151028414;0.07806696550787591;0.0061115126635447915;148.0;0.1680596575402929;0.05973098975246787;0.003575082381737822;153.0;0.15118081499517286
0.039185618706307206;0.0015400611112545725;145.0;0.12193531667415394;12.0;0.03353328298039337;0.0011281527506177;146.0;0.11124730788202716;0.03433239337005481;0.0011825278910934732;149.0;0.10840020836967118;0.03471844023569846;0.0012089193064889663;157.0;0.10723282683467601;0.031183483144991878;0.0009746236088197732;150.0;0.10351185351244466;0.02954116481239711;0.0008740917983815601;154.0;0.10194083354433355;0.028841507467234826;0.0008322819372203822;154.0;0.10094027481368066;0.049986752317524155;0.002506226688571046;169.0;0.12923533687429056;0.045943444598349904;0.0021052620379387998;161.0;0.11324227452585273;0.048534438272898356;0.00235111645267462;159.0;0.11756352389237962;0.0468616097316011;0.002191718431184736;166.0;0.12503507042051298;0.04542845392977909;0.002064323745260433;153.0;0.12643564185350983;0.04381403741460934;0.001923442458414437;148.0;0.12721701819337194;0.04382019781645974;0.0019260374706903541;142.0;0.12805490017804422;0.0382419847477822;0.0014672274634077926;146.0;0.12099839586594144;0.03632091188680717;0.0013136053714386093;168.0;0.1052972789808105;0.07085524091871662;0.005032798976129564;142.0;0.15185422918888486;0.06873822373171033;0.0047385392700548005;146.0;0.14616340145210754;0.0644893842459096;0.0041724841488520155;150.0;0.14498230958058556;0.059695501615949186;0.0035748799714038714;159.0;0.14057485778748247;0.05566912814832567;0.003109192191639919;154.0;0.13438327788999024;0.05288137754016992;0.002805544030987493;156.0;0.13192064098122777;0.05081406057372699;0.0025897426178710966;154.0;0.12988240058334147;0.06807434763598126;0.004643712141366567;158.0;0.1534363815221388;0.0640324605509681;0.00411204801868169;147.0;0.15375206216630852;0.06643180248006564;0.00442756927869248;145.0;0.1560654643560312;0.07224364324875428;0.005235988328484543;150.0;0.16025906542429144;0.06858401176780628;0.0047190815782931755;156.0;0.16043788079603435;0.06561658598780493;0.004319021770804399;152.0;0.15979737590626275;0.07000041536531686;0.00491247756495089;143.0;0.15778232019114044;0.06894989992481312;0.004764120979237406;140.0;0.15518698185686403;0.059649076506638726;0.0035687640315363576;148.0;0.1477970519708152
0.03701160028930644;0.0013743239516944173;146.0;0.11577667615637577;12.0;0.031513348092623565;0.000995854684003142;150.0;0.10690990282445723;0.031718140612927465;0.0010082622602250904;147.0;0.10569228866182498;0.0316620362459602;0.001004917675929807;147.0;0.105660475621602;0.028012559445323576;0.0007865581793907087;143.0;0.10194702402623441;0.026291489919255572;0.0006929637835261462;150.0;0.10055918930468236;0.025064307119450506;0.0006298634129379446;146.0;0.0993837111714633;0.04477469104937141;0.0020105980118010174;154.0;0.1230196858830729;0.03697185428669739;0.0013669048270549212;142.0;0.10903585899631023;0.040557431356591414;0.0016442244500138885;142.0;0.11310761566034613;0.038793188675174534;0.0015087580698157563;146.0;0.11980981606546146;0.03902944719494405;0.0015282677808483658;146.0;0.11987399953534884;0.03825645398121919;0.0014683248484644513;144.0;0.11997570001718551;0.0369078790080123;0.0013665471121272605;153.0;0.1193356570110599;0.03416312484480419;0.0011709238239648212;159.0;0.11509219760021207;0.02882069582527897;0.0008310698947363059;146.0;0.10215489571189348;0.06106174758460018;0.003738438584041275;147.0;0.1396988485059239;0.06175978289917525;0.0038256817272957233;152.0;0.1347813274255811;0.05557909134042925;0.0030990744039990077;154.0;0.13202964239079984;0.05041715132395308;0.0025501588943218504;158.0;0.12816875505834485;0.04675862144277304;0.0021934548261957317;154.0;0.12205423478036868;0.04484072229689573;0.0020172596552485095;157.0;0.12021820865206011;0.04376068812832693;0.0019212530576699215;151.0;0.11844395729986017;0.05662223478960316;0.003214264748145549;152.0;0.14364205524812695;0.04909339130687938;0.0024164725791177444;151.0;0.14188036856079572;0.05291514438889556;0.0028062093804939545;151.0;0.1457327413742263;0.058068966591277395;0.003380292024652282;156.0;0.15142295590451185;0.05497685032988616;0.003032268161891282;157.0;0.15259585121367744;0.054194958367444535;0.0029465194444736106;153.0;0.1518311973013228;0.059197644447559955;0.0035146392144622595;146.0;0.15183725813631846;0.05902665450419178;0.0034946957405283517;145.0;0.14814655422225256;0.04608831875434016;0.0021289361556631544;152.0;0.13655735899996627
0.03867725774105705;0.0015003001104425303;160.0;0.11326571283751859;12.0;0.02983642362553085;0.0008926849429448924;161.0;0.10129984091404838;0.027382243846981017;0.0007521943724880843;152.0;0.1011497428490433;0.026823508473741146;0.0007218138516230829;155.0;0.10240856125973058;0.02503486242909408;0.0006287864122562894;155.0;0.0992801997800141;0.024796943918925122;0.000616899038647862;161.0;0.09742182363833304;0.024807020119703625;0.0006173968341892697;159.0;0.09707943231312355;0.04617235639729815;0.0021387627001102855;151.0;0.12191723187808548;0.04175720175378748;0.0017493202684450654;153.0;0.1113791769640625;0.04522637424894467;0.002052104834865701;154.0;0.11387542956352509;0.037074526769221065;0.0013789802711051719;153.0;0.11322936655433267;0.03480512961425171;0.0012153277199285952;160.0;0.11367987668286429;0.03383874814031715;0.0011485221299188902;157.0;0.11392431172438944;0.033801134378793514;0.0011457283936353185;159.0;0.11332990151094056;0.032738571236830945;0.0010749404607219642;168.0;0.11012861884820661;0.030950890876861502;0.0009610885812318767;150.0;0.10404447120537783;0.053626613566419845;0.002882124562571851;140.0;0.13946154561309299;0.05376866451238808;0.0028972050992428756;146.0;0.13449599966533637;0.05101808342893289;0.0026065717450836894;143.0;0.1286646053192135;0.04901020053714271;0.002403661413925752;145.0;0.12643215816006007;0.04529369862700815;0.0020527867222511964;139.0;0.12025780540063327;0.043671746787378354;0.0019083773477480235;143.0;0.11850083607898691;0.0432186401269983;0.001868677265817406;139.0;0.11691463802877992;0.05575097582103764;0.0031169189088314916;146.0;0.13900047587717848;0.05877275159494588;0.0034583749125928543;134.0;0.13558997795410233;0.06351676000380815;0.004038771367047413;135.0;0.14098500700347188;0.06989462788648107;0.004890792815573768;145.0;0.14917151103729817;0.060855092426469574;0.0037100287942739706;139.0;0.14920052429821906;0.05356443396566316;0.002875884085793482;154.0;0.14923778276606614;0.054445435539133606;0.002972379977031719;154.0;0.1496320265414535;0.05441261763170993;0.0029687583720509115;158.0;0.1444017254792418;0.05038720308003176;0.0025415043502712634;131.0;0.1261783424703442
0.03413460951900107;0.0011676445601523195;146.0;0.10669217352525154;12.0;0.029421578202278004;0.0008677172972218715;143.0;0.09998991540614577;0.030088355221596228;0.000907867478855063;147.0;0.10195718746884479;0.031073757896512247;0.0009685126252687811;147.0;0.10291339327491059;0.02828602380884085;0.000802331560935686;147.0;0.09978074248674272;0.02831889520022315;0.0008040267759443779;152.0;0.09811176238219203;0.028499319153554095;0.0008142303509577687;150.0;0.09702113809418308;0.042034322041160956;0.001770673565276566;134.0;0.1126496825423757;0.04523655710776349;0.0020508538645749685;149.0;0.10968104738614408;0.04824048744879666;0.002333468357878752;148.0;0.11182278673800551;0.04173861484744803;0.001746101195444786;146.0;0.11191751148807069;0.03796584198086502;0.001444444487026216;151.0;0.11361115200031344;0.03526407437853115;0.0012459454088541103;153.0;0.11585760860748517;0.03291400095003256;0.0010864252251913497;152.0;0.11401346653053983;0.031214130594992905;0.0009770929713047826;151.0;0.10792919276025548;0.03507909838990875;0.001233155276894263;139.0;0.10301415979641884;0.0615913184175545;0.0037993623128129133;150.0;0.14141663947989425;0.059918033148116646;0.00359516700644016;148.0;0.13628946947279963;0.05452469114033779;0.002980620696606133;152.0;0.13043484876505954;0.05245241068977462;0.002759062325336153;146.0;0.12892361824879695;0.048117429962790864;0.0023202775630601106;146.0;0.12387834379043573;0.046064520905804554;0.002126321586939697;150.0;0.12248511102682012;0.04459066878707889;0.0019916169765437693;151.0;0.12054516391125122;0.06170665989111133;0.0038114189352927617;158.0;0.14409901233293984;0.061778524003618746;0.003820661878803622;139.0;0.1326394321883047;0.06761343744338695;0.004580953025070627;142.0;0.14112176563977527;0.07586071320223237;0.005769556214862346;145.0;0.15227568327761085;0.07201110168178043;0.005200736846046982;143.0;0.15979001680182062;0.0583897965809974;0.0034193553422022386;161.0;0.15326842893969447;0.05669098466909601;0.0032217326695123524;155.0;0.15032117637997108;0.05517301209409354;0.0030507622642368935;156.0;0.14404206778262457;0.051687280449071234;0.0026713751733453256;134.0;0.12255540561766466
0.03322346847596142;0.0011066901458377037;142.0;0.10370434559960282;12.0;0.028977682793102182;0.0008419358324216709;140.0;0.09642955503311151;0.029993030138950015;0.0009023581836167665;144.0;0.09657725685792343;0.030764573162399278;0.0009494834668866743;138.0;0.09674704420315428;0.02752310795513603;0.0007596275751203023;138.0;0.09553658456144518;0.0265536332452568;0.0007070429594548884;134.0;0.09444859835207842;0.026071406616823667;0.0006815604032519038;137.0;0.09310595521700292;0.039907568485010037;0.0015964781640530798;137.0;0.10897088295116342;0.036765554809641235;0.0013559547619220532;152.0;0.09969764849207562;0.038917534735858204;0.0015192017599857449;150.0;0.10322119983383604;0.03656182386616645;0.001340970871518399;142.0;0.10471854073161214;0.03678696508877885;0.001357688873611545;143.0;0.10733852128207658;0.03429843615690951;0.0011799707339410796;141.0;0.11041201072301543;0.032418823175825874;0.0010536195001256128;143.0;0.11150593194817568;0.031007049142968642;0.0009629028208992643;134.0;0.10400223642386808;0.03232200316893308;0.0010480843816720287;147.0;0.09548299415739692;0.06578261707460399;0.004340472016381878;161.0;0.1414552717312996;0.06496872024319386;0.004233612534700189;158.0;0.13767593921863663;0.05889689715970643;0.003478060845288202;167.0;0.13369118457511678;0.05620707381948373;0.0031663179222258617;158.0;0.13297092238005517;0.05131056440274297;0.0026387076871707818;160.0;0.12835469123191498;0.04837097002761906;0.0023443340844424444;162.0;0.12728973773207547;0.046040530745008;0.0021231715208142907;161.0;0.12458164198926806;0.06690874153336261;0.004489141486641704;166.0;0.14947454231460292;0.05408830614008522;0.002931330975722753;157.0;0.1286106103998859;0.05467101665942484;0.0029963542566774806;165.0;0.13572042853881444;0.06316119293099626;0.0039994969835179086;161.0;0.14839639171212757;0.06722684185123064;0.00453284800418029;159.0;0.15882814705384274;0.058518041123257945;0.0034345722874464316;160.0;0.15323088762167378;0.05877011449211069;0.0034637337141335514;151.0;0.15139569407896167;0.05696058749989644;0.003253153286548424;154.0;0.14589769526186458;0.05171451198418035;0.0026799709555746032;152.0;0.12335531048056883
0.028366581956010155;0.0008071445307040939;154.0;0.09978751153951348;12.0;0.0229195520389334;0.0005269435252947671;144.0;0.09274310285035837;0.023741897015525287;0.0005655240243544441;142.0;0.09350400432708171;0.02476179577299556;0.0006151590550430906;140.0;0.0958807730281006;0.02182980147012674;0.00047809416502089943;148.0;0.09439158848558947;0.021007938426621586;0.0004427295763118091;145.0;0.09282583653390568;0.021485324846621218;0.0004630155139123614;146.0;0.09285066465232662;0.031952975289581124;0.0010239447901584859;157.0;0.10288425944135293;0.030065522419428482;0.0009068780527254477;148.0;0.09739650768773576;0.02915793319253277;0.0008529595218956011;157.0;0.09998993897957688;0.028246877521871255;0.0008004753539847645;152.0;0.10191440596061231;0.030354509395011796;0.000923925461734243;151.0;0.10238779808267036;0.02948064543500974;0.0008715115914688554;149.0;0.10344272611597326;0.03147258703814607;0.0009936349697461354;156.0;0.10666876726233337;0.028466495133047862;0.0008129897972270026;157.0;0.09834343275679837;0.02684365055005389;0.0007226059590310926;163.0;0.09274405766057521;0.0863003268897374;0.007471940078267842;152.0;0.1538605501103644;0.0831363364222232;0.006934183433531682;151.0;0.14882523897735891;0.07441184583311523;0.005555017967137208;153.0;0.14227874011228497;0.06771263753567114;0.004599665994705175;153.0;0.13880388249658313;0.06176875486280523;0.003827854607159137;148.0;0.1341222269506834;0.05787307735130658;0.0033601859538750613;144.0;0.13289884381475786;0.05520390181434064;0.00305739196645728;149.0;0.13117027977855458;0.08106658304606378;0.0065928320307665645;157.0;0.15413889958294386;0.06829987963930671;0.004679832025883296;144.0;0.13786278627092627;0.06739142587874496;0.004555854414023415;157.0;0.14216478481574726;0.06989988145744767;0.004900814039208584;155.0;0.14940555785768492;0.06427863641289991;0.004145107332296798;152.0;0.15167252796337022;0.05874952035534703;0.00346282252539634;150.0;0.15092236887372623;0.0592805718643806;0.0035257043117273563;156.0;0.15061747752490479;0.058199223855929065;0.003398200966471096;157.0;0.1460239533248338;0.06405942683160026;0.0041170747645027555;154.0;0.13434710072441122
0.024426587243070282;0.0005986076120006248;156.0;0.10339885035959885;12.0;0.02094517864652069;0.0004400867707066638;141.0;0.09834319863264744;0.022233929292963285;0.000495971696383565;139.0;0.09712522604909711;0.02337578183881123;0.0005482262948200147;135.0;0.09783916500576392;0.020407244514086372;0.00041780003252496603;149.0;0.09435167372869127;0.019839512020133992;0.00039482571950783045;149.0;0.0928197507910459;0.019864656936792388;0.0003957558621329867;147.0;0.09274183285836159;0.028523674782620027;0.0008161656085810476;163.0;0.10713938926126161;0.034787329301280055;0.0012130980281250786;137.0;0.10312623271842468;0.03824457774802533;0.0014664337571945213;148.0;0.10805705054920381;0.03483813775283588;0.001217151670687674;139.0;0.10869421737101523;0.038140260952448574;0.001459051597078273;140.0;0.11256793992440076;0.032655929204768785;0.001069416393029034;151.0;0.1081831890317716;0.0310420322807322;0.0009656772818142654;160.0;0.10983074766184306;0.027297376116074665;0.0007462769851473036;161.0;0.10409272753162029;0.024927495074469706;0.0006230714480634362;145.0;0.09504536905931171;0.08004444199055581;0.006426207420122715;156.0;0.14463595148942776;0.0755977858131399;0.005731292320001742;153.0;0.13872860617156782;0.06659630125664547;0.004447330455534059;157.0;0.13090025156546406;0.059647199360666384;0.003567043136746314;159.0;0.12540122735197504;0.055115558720100856;0.0030462537366254525;157.0;0.12230906899163568;0.05223774795888233;0.002736415952427725;157.0;0.12130603057629115;0.05057324448620639;0.0025646373544779924;158.0;0.12104264838563683;0.07350554713185715;0.005420133677694975;163.0;0.141394697055809;0.06363441351755277;0.0040595381678147045;159.0;0.1324491264701007;0.06578749936168353;0.004340226343891591;166.0;0.1377579435243508;0.0687970792132998;0.004747478514650621;165.0;0.14473079733365588;0.06337565318731442;0.004028949463437448;165.0;0.14657455716027198;0.05373842289932425;0.002896247579146559;162.0;0.14142893562175696;0.05382921341193727;0.0029063829989395447;168.0;0.14074977879083314;0.05283996362700774;0.0028002685031292833;168.0;0.13584005749150352;0.05749504331120738;0.0033131135783139344;169.0;0.1290707158701179
0.07519006202194406;0.005671965110020966;165.0;0.13868433092625576;12.0;0.06531300249640792;0.004279541771563961;160.0;0.12940390001051058;0.05993956765916637;0.003604495087665485;157.0;0.127890592149271;0.056684046028535696;0.003223586579787544;152.0;0.12781635503050903;0.05261194907480783;0.0027770534425054405;153.0;0.12192707252097075;0.0515719630646406;0.0026683870782145975;150.0;0.11867186118295896;0.051399230445143315;0.0026505494921240684;152.0;0.11667900260791345;0.0899422366411385;0.008115834005322812;170.0;0.14941662820009813;0.07491042731854976;0.005629114225517339;155.0;0.12936833409380977;0.0823494945744108;0.006802544220656816;158.0;0.13399915950794242;0.08281574086769806;0.006880822191858076;148.0;0.13775018985373325;0.08508889397084633;0.007263808098292664;138.0;0.14926095609862897;0.06890099408911748;0.0047627284730217415;144.0;0.1444896685636205;0.06688688966107514;0.004488178246481535;144.0;0.14170050258019593;0.06797956091919292;0.004635611467820078;144.0;0.13817733156403356;0.05741114869039465;0.0033068012258394746;151.0;0.11843520728557841;0.083463347781513;0.006978010250377446;163.0;0.1520006833051079;0.07924664257621696;0.006283983452568551;169.0;0.14653106226073842;0.06290409669783048;0.003952017182010866;178.0;0.1364062521805677;0.05545127558257787;0.003069392396573414;177.0;0.13186214204817012;0.05462458872717721;0.0029788755574698964;178.0;0.12882040743938392;0.05451412274881975;0.0029671327646346134;177.0;0.12741625232941653;0.05364570447387906;0.0028750981438346525;175.0;0.12686067843305782;0.09312305000018298;0.008695654480859984;163.0;0.15702572079456614;0.06418496452401865;0.004126165431908969;170.0;0.13786636878245037;0.07032636809018586;0.0049583268735603515;167.0;0.1424871062344315;0.08514681449047325;0.007271691778482592;169.0;0.15501401719486185;0.08648145210286741;0.007499008609695994;170.0;0.1554549042647841;0.07316784139538353;0.00536421615589706;166.0;0.14576084352984162;0.07354921545730178;0.005417819796265393;168.0;0.14630849422429462;0.07104210049114885;0.005057016698492505;174.0;0.14308159404850668;0.05392443460049011;0.002909426772273199;174.0;0.13087899157055016
0.09285562092118392;0.008646057847670845;164.0;0.16181628771048456;12.0;0.07761309812885667;0.00603942714125365;160.0;0.146045866750673;0.07181435481705077;0.005170968439051284;154.0;0.14411553397691637;0.07036525054542285;0.004963499126915606;154.0;0.1464951538420703;0.06595334059324102;0.004361102507875942;154.0;0.13905969829405554;0.06503598715005326;0.004241169882193478;152.0;0.13520957075034373;0.06527298649422952;0.004272415691103921;161.0;0.1341304681614211;0.11253826846768494;0.012702540605551744;162.0;0.1789732222253166;0.09111367833780626;0.008318930016116775;159.0;0.14556848714142237;0.09799626141925802;0.009627879413331519;156.0;0.1497476553677602;0.09815014982232975;0.009660275173857417;156.0;0.15503165755446455;0.0963731388216649;0.009312345220092083;144.0;0.16434948668314742;0.08104378218882714;0.006583035080017744;145.0;0.161942777885934;0.08293557421824276;0.006892134394203191;144.0;0.1595848857611542;0.08101057865549194;0.006577239535871533;146.0;0.15716556077892413;0.07458013800528943;0.005573657758434573;159.0;0.13631879414963835;0.08983266171978463;0.008094358866264518;162.0;0.16455299099916593;0.08702508614194676;0.007594360442214689;168.0;0.16051533768193138;0.07072591631719329;0.005015482917960817;176.0;0.1514254750111883;0.06292812869623392;0.0039719494677155605;174.0;0.14662127226020727;0.059298526875693626;0.003527013383350767;166.0;0.14050885507965974;0.058632398907039585;0.0034487281321971676;160.0;0.13804871263006993;0.05691852621237187;0.003250143156834122;162.0;0.13640094144835488;0.09880962939211584;0.009795109478164072;155.0;0.17052886510770912;0.07021490803668792;0.004946081414042468;156.0;0.1498820696499526;0.07681416328428124;0.005919680180278496;150.0;0.15669660015004155;0.09128420175605757;0.008360142204929654;144.0;0.1695640147469811;0.09013156100887161;0.00814995855089617;158.0;0.16985819889400308;0.07977341972369106;0.006380717521782631;157.0;0.16483671587542778;0.08246828735620797;0.0068207135081912755;156.0;0.16769058400459755;0.07776565097316984;0.006066581321975367;155.0;0.16167346587011924;0.06041507976175772;0.003661891758063987;162.0;0.14038397294517949
0.07472750506734825;0.005598662866921209;164.0;0.154434130274448;12.0;0.06148611792970085;0.0037905127729346093;165.0;0.1376502329012295;0.05820663597078271;0.003397970125666997;155.0;0.13519595421643146;0.05847073154453119;0.003429634795266051;159.0;0.1364292715500349;0.053420698513369544;0.0028624274076439523;164.0;0.12863025742701867;0.051323281565092874;0.0026421533103639545;160.0;0.1241909173244717;0.0510393531214167;0.002612778857873714;166.0;0.1235145072311946;0.08963641591063867;0.008051605613193487;154.0;0.17092386875500354;0.07241783641146148;0.005258238884922165;173.0;0.13676705690262694;0.07565310751809391;0.005738024812870381;158.0;0.14148012989124645;0.0710184889066597;0.005058665153792866;161.0;0.1469285836631193;0.06879402339322264;0.004744559528940491;149.0;0.15052245925723626;0.06575590679453301;0.00433205761050951;152.0;0.1515391024657458;0.06918332904074985;0.004799540851732111;157.0;0.14967509368985762;0.06302494280732103;0.003982510450608949;158.0;0.14619464486124734;0.06117327499444048;0.0037530939679062715;173.0;0.12871194489998242;0.07299207697572113;0.005345084104447778;156.0;0.1526401243635788;0.07102582029166428;0.005061131313806889;159.0;0.14947960949641304;0.06376729234235991;0.004079535671610088;164.0;0.14285596037615678;0.05888062072786362;0.0034779469069097396;160.0;0.13771960065389088;0.05230461043127059;0.0027446766249194566;156.0;0.13053146631615337;0.05032265912859595;0.002540414361230653;152.0;0.12838110584480894;0.04897870945078493;0.002406694019132757;151.0;0.1274468723972296;0.06946845510515354;0.004841038522897749;155.0;0.15206776502930225;0.06976033262487534;0.004882409247704718;156.0;0.14245020985817436;0.0739973520806367;0.005493562721444589;149.0;0.15120841982882677;0.07813419119833363;0.0061247521947134015;143.0;0.1600225916543236;0.07151663865133484;0.005131424871767153;157.0;0.15874985900610855;0.06761469430441759;0.004586782997559005;159.0;0.15643444972577414;0.06789838658624639;0.004624800629390028;152.0;0.1561738293483989;0.061832971210687225;0.003835846085368794;142.0;0.15008790914699371;0.06219392340085842;0.0038806440913473723;157.0;0.13723730962731448
0.06570122968613827;0.004319820671094345;162.0;0.14379902812572135;12.0;0.055964980452994716;0.0031347071544142275;168.0;0.1320163160147318;0.051119651865076395;0.002614332385840203;164.0;0.13077971102321576;0.04885850481025116;0.0023879060562881694;164.0;0.13001100805489527;0.04314533522735078;0.0018615199132224565;165.0;0.12302870105714839;0.040172754655497994;0.0016138157837305403;164.0;0.11812119116729854;0.0398327352088402;0.001586624026093721;166.0;0.11647566757699362;0.07756759854308287;0.0060241172101379884;152.0;0.1562378426889863;0.054507211577986145;0.0029582889466108577;177.0;0.1273362397144988;0.05559089897321143;0.0030792164777070866;167.0;0.13171533500878385;0.053052159404101996;0.0028054005484032217;171.0;0.13935568518586017;0.05398070785704707;0.002906016137662417;159.0;0.14083759288616152;0.05436406224110148;0.002949216946613841;160.0;0.14237503329349757;0.05793727303900769;0.0033543691967572024;161.0;0.14472666391880026;0.05635883545049294;0.0031751803340847383;163.0;0.1417108902699176;0.04478797455889683;0.0019972799393807683;184.0;0.11931976244462428;0.07344846524627355;0.005409735356670217;136.0;0.1470790053939118;0.07463289252722564;0.0055853965094585095;147.0;0.14750866107634636;0.06148235164713225;0.0037907232671298046;148.0;0.13803773795317256;0.05455175612701735;0.0029845191467750484;151.0;0.13302506650698312;0.04874983479899117;0.0023834984941017772;150.0;0.12596539279156396;0.046806433450428966;0.0021971211457097;153.0;0.12366802271710273;0.045621764680901;0.002087833465637479;154.0;0.12317735569544955;0.06402069235791137;0.004111085546528937;153.0;0.14388357740051344;0.07326411452349646;0.005384294541634565;153.0;0.13788017364817812;0.07230805275416353;0.005243287078765397;148.0;0.14250893095358774;0.07407755124836828;0.005503695930476097;144.0;0.15064917118368756;0.06444850464158594;0.004167000082698071;156.0;0.148115272879059;0.06022261320647826;0.0036367245162537884;157.0;0.14191575508390494;0.05795499882018518;0.003365681237736423;158.0;0.13719578216516107;0.05449155217900224;0.0029778011845255203;150.0;0.13283532322411684;0.061538667512176536;0.0037994075534265063;153.0;0.13472490633097423
0.059982311418056905;0.003609520827437197;159.0;0.13713557694170656;12.0;0.04932526287572322;0.0024409375395756903;158.0;0.12621592708266993;0.04439655558097131;0.0019774723145629725;163.0;0.12360748927433612;0.04231112779757303;0.0017960729932102377;162.0;0.12252534828530894;0.03794111248310407;0.0014440637658030457;161.0;0.11727297635289331;0.03601423547390314;0.0013009886849229435;164.0;0.11414821944554301;0.03598424115880417;0.001298998821457254;168.0;0.11261116459777744;0.07093346917496438;0.0050467317218708075;152.0;0.14622150511602378;0.0454936441942333;0.0020764727781595986;158.0;0.12114735295864815;0.04917228698030964;0.0024258553960328838;164.0;0.12730887513972083;0.0502337499547239;0.002531141194339511;155.0;0.13455097534435384;0.04809623569402775;0.002320548484627124;157.0;0.13357422120802204;0.047572373956884136;0.002270425039272295;158.0;0.1361255122878415;0.05104623363335786;0.0026142201435872944;147.0;0.14249673755752545;0.05114860079862382;0.0026247229407048624;148.0;0.13864304832317223;0.03944524175276933;0.0015609516986605614;168.0;0.11427698113143787;0.07595035118240082;0.005786977263823778;146.0;0.15196029961224386;0.07874361145345557;0.006220069221597682;142.0;0.15183004373776857;0.06451219016191305;0.0041753066365366655;145.0;0.1425985651954871;0.05518410295616948;0.0030550878484990884;155.0;0.13638356859396492;0.049001093901713894;0.0024088404808181663;153.0;0.12941750326904064;0.04616066253290592;0.0021373484433360656;150.0;0.12636049521660372;0.044669228928174314;0.0020017983673898438;151.0;0.12459566966922545;0.06415337459009207;0.00412884399481749;155.0;0.1459580164560289;0.06671393806427965;0.004464980960405532;147.0;0.14075280175604107;0.06534070855080462;0.004283275730817048;158.0;0.14281558135823988;0.07012040098323749;0.004932821393959397;150.0;0.14909113702984692;0.06547050371337157;0.004300137357712914;161.0;0.1494031781840332;0.05672685057257715;0.0032280685122744743;156.0;0.1452207572933101;0.053493586048066644;0.0028706940815746785;159.0;0.14392406482847608;0.050667183733173235;0.0025743525745442375;157.0;0.13947947783702305;0.05521862013346121;0.00305817366025261;151.0;0.13313654124553323
0.0540519046747657;0.0029311283159797735;139.0;0.12848552551540743;12.0;0.04349370436418829;0.0018977281596135537;140.0;0.1177885442511345;0.03984087868438779;0.0015924786614771398;149.0;0.11737592172776919;0.038854427790994836;0.0015145992019091926;150.0;0.11696912070435;0.03494574819716832;0.0012251961871275925;151.0;0.11228039236060325;0.033248448546689034;0.0011090701519898835;151.0;0.10954650356304114;0.032188583902711405;0.0010394818965676832;153.0;0.10787582388013214;0.06158749055314341;0.003805334462697268;134.0;0.13388274711501738;0.04242443504420435;0.001804266740892889;144.0;0.11727924309542766;0.04643094784678513;0.002161206659764673;149.0;0.12285224329287467;0.04462963201718469;0.0019966702329799013;147.0;0.12944109088056682;0.043555872190506724;0.0019017496750786543;149.0;0.12819574928860014;0.04269330800009073;0.0018282022802961788;151.0;0.1305322142568367;0.04208839689610272;0.001776853698139288;141.0;0.13354200994475673;0.04051512316631241;0.001646804347930678;142.0;0.12555968017300226;0.03663507135880625;0.0013453775045880793;144.0;0.1110677180465797;0.06942384350636426;0.004832578532133925;158.0;0.14590174037387013;0.06963849537617244;0.004862370921930795;155.0;0.14232099120068847;0.06023332973441587;0.00363873119298769;148.0;0.13559511825010268;0.051970542074195665;0.0027094610127401733;149.0;0.12976084918348915;0.045565973665324416;0.0020826610076103594;152.0;0.12328191130836415;0.04224883743634824;0.0017906375889367148;141.0;0.12001828594697787;0.04123759366528588;0.0017058805536792157;142.0;0.11902340252955251;0.05968511224172682;0.003573155967903402;151.0;0.13925426995296347;0.06514849668756752;0.004256634919054579;154.0;0.14360617510480284;0.06300367744873876;0.003982104301001046;167.0;0.14263252382461294;0.06886496647814701;0.004757897330911876;167.0;0.14825801477183148;0.06694348726748606;0.004496050604114936;170.0;0.14955635733488637;0.05712866034025329;0.003274089781931328;160.0;0.147500014256085;0.05396837706861257;0.002919033531645049;156.0;0.14553517961247386;0.04873139907449666;0.002380206110611718;158.0;0.1379295854344839;0.05407035088496587;0.002931870561471442;151.0;0.1334686532913608
0.04494114833065367;0.00202558547880687;128.0;0.11685966285486564;12.0;0.035785132917335115;0.0012843855416577654;135.0;0.10820140310076377;0.033281401720396155;0.0011109393707506294;146.0;0.11049963361558657;0.03386481797224564;0.0011502983621214241;152.0;0.11231872710180307;0.030256221731179707;0.000917791050767257;155.0;0.10668231702341419;0.02918135409259573;0.0008536085213380358;147.0;0.10317621908888494;0.029129003939227183;0.0008505011763467252;143.0;0.10144809245570628;0.0533591872034192;0.002856295131436631;127.0;0.12354231288536732;0.03890108007514329;0.0015154681288137978;135.0;0.11532622441177863;0.04251002576849653;0.0018101436504062561;140.0;0.12009925413013119;0.041025214066577435;0.001688187121559992;153.0;0.12526061821413353;0.0429018027035458;0.0018462795298820893;150.0;0.12327749123965628;0.04027560241213796;0.0016265739722424743;151.0;0.12357489495198946;0.03696180723839015;0.0013697694076557126;140.0;0.12356024528726361;0.0351094100924619;0.0012364554334772474;140.0;0.11519516703882737;0.033469821184084314;0.0011221489871704896;139.0;0.10858808542270436;0.05734488086757569;0.0032986259104793567;156.0;0.13752663638955934;0.061459839057661524;0.0037896638413677554;160.0;0.13480123774267505;0.047771678689542005;0.002289591192309419;155.0;0.12683445968708557;0.04037606570231435;0.0016355360194791832;156.0;0.12343144040295136;0.038228212411472014;0.0014660981748342876;148.0;0.1181875397640512;0.03688839491068305;0.001365211678529745;145.0;0.11487760911544674;0.03537885017735887;0.0012557592741170292;149.0;0.11368731423474893;0.047958584668853874;0.0023075402735187028;149.0;0.1309863847332197;0.060200851908580204;0.003636003766663233;153.0;0.13817172206037678;0.057306248567661;0.00329480092172564;162.0;0.13879797813037362;0.0631524382246103;0.004001229113304125;169.0;0.14602823714574664;0.05738601587791711;0.0033037658134119087;164.0;0.14533992361080317;0.05211228327859564;0.0027245412928292288;157.0;0.14934570118963467;0.05320188408527994;0.0028397087225677502;149.0;0.14825693185932448;0.04625424066308138;0.002146479998585391;148.0;0.13766075264729208;0.04880061122439243;0.0023893005369104176;148.0;0.1306642163746575
0.03877080922164652;0.001505834087218159;141.0;0.11253049195705922;12.0;0.03174627259809594;0.0010101908797259583;147.0;0.10392170397364087;0.032781899329201634;0.0010779799444226457;157.0;0.1066214550005612;0.03348813639143778;0.0011251199201323177;169.0;0.108144611284412;0.028095815371486012;0.0007919543572560496;167.0;0.10067028262208873;0.026751752520030214;0.0007179946752946975;167.0;0.09751794994996293;0.027088232369299647;0.0007361199716290183;157.0;0.09512076092897799;0.04727523638722398;0.0022393812315239445;136.0;0.1197967254659264;0.03418346246160676;0.0011718083788764902;132.0;0.10807711170540628;0.03707696605854266;0.0013785442799729244;138.0;0.11305500954413303;0.03716796237716369;0.0013847866482901842;154.0;0.11729085398501966;0.0417096983451702;0.0017439121642021432;143.0;0.1190575016841658;0.04136647426874171;0.0017148594430338702;155.0;0.12136378323038031;0.03898893356603038;0.0015240688247455932;147.0;0.1197604189044175;0.03666366548255299;0.0013474245291038931;149.0;0.11380880173009199;0.02859658175143356;0.0008202619363856914;152.0;0.09972636795791677;0.06610179897440308;0.004383792033822341;156.0;0.14686171762686742;0.06825090957072867;0.004673471226588303;157.0;0.14179775226065505;0.05286157249203682;0.0028035350887280213;158.0;0.13116757833249126;0.04514750264745188;0.0020449402963439015;160.0;0.1278826773895915;0.043419721126457804;0.0018913612340989642;150.0;0.12393491312959928;0.04246768915512831;0.0018091750633164234;154.0;0.12205153109918947;0.040231339114922056;0.0016236888948048833;157.0;0.11976031197233329;0.06017552790793571;0.0036329586818738533;151.0;0.13870436490117855;0.05570464292370596;0.003111396061432798;148.0;0.13652874960120825;0.05860867148976933;0.003445686172512857;151.0;0.14004024091698386;0.06700122215245882;0.004503834566646738;166.0;0.14888807856297026;0.06326190515246492;0.004015154246214974;157.0;0.1467270473132102;0.05573976311749791;0.0031167616850172344;150.0;0.14706528380605305;0.05444960194192748;0.002973497376185169;147.0;0.14682651100636274;0.0513974249753197;0.002649908393797037;147.0;0.14000538704725393;0.045762765504999636;0.0021007052154185285;154.0;0.12842484355756617
0.04220202915043132;0.0017860303529797727;137.0;0.11830426882371095;12.0;0.034335337363579965;0.001182515164222755;134.0;0.1055095265917508;0.034622328932582165;0.001202636977233384;151.0;0.1062461885190276;0.03460600097144956;0.001201499215738404;159.0;0.10723941623436976;0.029946207366808204;0.0008997231557994966;157.0;0.0998401805009816;0.02855943959421041;0.0008183123380836629;157.0;0.09730694384790413;0.0272234697929966;0.0007435336892521581;148.0;0.09413654127986001;0.05094983338289331;0.002603776494988253;131.0;0.12548372876927158;0.03186582651869104;0.0010186011037192854;138.0;0.10029953735307007;0.03367770350384544;0.001137194261108896;145.0;0.10489582838249346;0.03543194088758933;0.001259519748372015;158.0;0.11234745055702208;0.041868153153933406;0.0017581685941726894;146.0;0.11994489096503065;0.04062262439762765;0.001655321902033546;158.0;0.11814020626408031;0.0401670137534068;0.0016186060326830163;157.0;0.11766072059489091;0.03876877489274395;0.001507928789124937;151.0;0.11227905162355604;0.027997532144557524;0.0007863780459538228;144.0;0.09533569271928852;0.06657728990029464;0.004446985362105547;155.0;0.14915202744545114;0.06527113018072364;0.0042742240519888655;152.0;0.14125645870570075;0.05360253466809752;0.002882418853088938;146.0;0.13090505316594114;0.045630935138179146;0.0020885355579393057;141.0;0.1258216624612884;0.04048168957897409;0.0016439378991928225;144.0;0.12148073173754115;0.03804968982736085;0.0014519758528385254;146.0;0.11925369679989653;0.03585078554778151;0.0012886903029728602;142.0;0.11728993960549741;0.06000336806399266;0.0036120251393084875;151.0;0.13959469671517996;0.05324413919816261;0.0028414125728135294;156.0;0.13333316514455362;0.05942157660226249;0.0035386640204578346;136.0;0.13891794668206947;0.06798212381657749;0.00463282851276481;149.0;0.14983535506788884;0.0667292238934909;0.004466328853157014;150.0;0.15004238840307818;0.057501795205348136;0.0033171535998036067;153.0;0.14363689965320392;0.052640857162295565;0.002780145477886313;147.0;0.14107124499680393;0.050674739522893586;0.0025763414323306333;152.0;0.13502958924628022;0.04590477771038146;0.002112279775617251;152.0;0.1293575035229112
0.045350710327414535;0.002063425331619501;148.0;0.12379279448354666;12.0;0.03564847748707466;0.0012749918969636083;139.0;0.1099934413204652;0.03263540741272764;0.0010684820240175136;156.0;0.10792324223154402;0.03167656729152958;0.0010063899389026036;149.0;0.10853004702724407;0.028419442022600626;0.0008098530124124675;147.0;0.10260538704113678;0.027101557390853664;0.0007363242378701287;140.0;0.1005813981999268;0.025818465196186698;0.0006674756898195799;135.0;0.09831611976578372;0.05318547007669862;0.0028379393978984553;142.0;0.13040496367573642;0.02988014188991999;0.0008952482427931546;154.0;0.10140251709230572;0.03241043438279166;0.001053615636670056;148.0;0.10754130014548913;0.036217074434368286;0.001315817531020713;148.0;0.1167808436737982;0.039918225564763515;0.001598594847716283;148.0;0.11798146459775673;0.036945890905685064;0.0013692545374796316;149.0;0.11350585528459396;0.03577577229231928;0.0012835881764370748;145.0;0.11316659125298752;0.03562685986050219;0.0012729534527577697;136.0;0.11028148090638472;0.0281501469382775;0.0007947185036220502;137.0;0.1000228284792721;0.057557980464607;0.003321656417503211;164.0;0.13965658994441585;0.05674629116710302;0.003229412648450289;151.0;0.13381430851931972;0.045973926156750194;0.0021199751353049973;149.0;0.12334511111150782;0.039036244622608525;0.001528114563804163;147.0;0.11847708744313241;0.03401763492552615;0.0011604831127484145;157.0;0.11302658311760612;0.03182975724106541;0.001015396616065683;152.0;0.1107876299600475;0.030779158166260635;0.0009499606029744094;147.0;0.10966667242605221;0.04766107068495292;0.0022783131195120033;153.0;0.13351205147902345;0.056730051485769636;0.0032286500860732783;156.0;0.12989694358623566;0.06204245936841188;0.00386181997577846;143.0;0.13732858542796433;0.06846440536968465;0.004701226270319012;151.0;0.1464452861817865;0.06282448493011775;0.00395695256465053;147.0;0.14573019525066372;0.049743747575473535;0.00248216808124552;155.0;0.13539874587580936;0.0465514470855425;0.002173774014142178;142.0;0.1350224782848356;0.04368764192714472;0.00191384686951539;146.0;0.13033754435687803;0.04858823465029185;0.0023683980060022636;144.0;0.12839590255119412
0.05040705413694785;0.0025487596067095223;158.0;0.12667843206419005;12.0;0.042461030066198;0.0018088063724225312;161.0;0.11724753353469991;0.04013110633910959;0.00161575159682797;166.0;0.11623733851279824;0.0391074294976476;0.001534280288168606;153.0;0.1158122640726185;0.03580493533488481;0.001286091484368263;158.0;0.10881794350404261;0.03477128414506284;0.0012129583876121734;158.0;0.10669010614000307;0.035573000772667555;0.0012695705096171833;154.0;0.10585611648285485;0.057215615111894796;0.0032840434405654244;147.0;0.1312334319379451;0.043268513030801335;0.001877820813886677;162.0;0.1117503276468225;0.04487588315731136;0.0020198254237073095;156.0;0.11682657851234558;0.0429292533444888;0.001848875182222156;156.0;0.12344446978247765;0.04333036144601406;0.0018835271222600782;155.0;0.12553617596348854;0.04267484212823639;0.0018271936653987306;149.0;0.12488442334414437;0.043746128363586094;0.0019194371273814543;149.0;0.12698395252867917;0.04205111659509865;0.0017737176670463578;153.0;0.12312227045461603;0.03877558106938529;0.0015084282212439724;153.0;0.10769560690273544;0.10423312612988997;0.010898101935813902;161.0;0.16853518475869872;0.09579997160178724;0.009206431707126058;154.0;0.15861901963598068;0.08895635675078144;0.007938076650596985;150.0;0.15172703874765867;0.0819650641133856;0.006739798443434056;148.0;0.14833706221989706;0.07502766407123013;0.005646826517125569;157.0;0.14315402105864433;0.07105758859276476;0.005064512633450435;156.0;0.1409130357434146;0.06903455357332208;0.004780435526161257;156.0;0.14027500032492193;0.11192094560752998;0.012560694894861144;144.0;0.17430065330658787;0.11059031994461975;0.012269857813222944;153.0;0.17407537474806245;0.14203778581208845;0.02023914102016332;152.0;0.18371372447865167;0.18701772931989769;0.03508451434291193;161.0;0.206274581570646;0.14617071813581015;0.021431413082730454;151.0;0.19945482529648673;0.09594766044969653;0.009235707991742266;161.0;0.18706978632103688;0.106516318472072;0.011380736643275182;155.0;0.18472557158749098;0.10232107876108609;0.01050371099127767;159.0;0.17344356504965686;0.08893664209357498;0.007934746144496232;145.0;0.15883715242556956
0.04642999848305414;0.0021603126969324776;161.0;0.1252250152653591;12.0;0.04062936129079298;0.0016535351953082759;165.0;0.11691024208820222;0.041369389895555025;0.0017149842342160729;169.0;0.1170130199507586;0.04221058986987094;0.0017851868533455021;165.0;0.1173414432849532;0.03751947097482793;0.0014107639963088405;172.0;0.10884832262275784;0.03578294477904752;0.001283778313097071;170.0;0.10561678609068437;0.0364697352448728;0.0013326698335023898;162.0;0.1050672409260719;0.05352213689845188;0.002872982143944679;152.0;0.13037374588215156;0.04658419193600181;0.002176450124719652;160.0;0.1177243475003683;0.049290989729308295;0.0024361077989328876;157.0;0.12406623502784506;0.047471866189956656;0.002260281044667746;161.0;0.12899634410453079;0.04838155376053781;0.0023474763766560183;164.0;0.13382918377248543;0.04654242391720366;0.0021713006376369187;159.0;0.13385615944817433;0.050395243958724585;0.002543371867843878;169.0;0.13750824217575747;0.045758213106061166;0.0020975781231825793;173.0;0.1314141604063703;0.03907645574182954;0.0015313628207253998;158.0;0.10874987123296492;0.12179656814450537;0.014883565812067475;164.0;0.18161680522824822;0.11379418034613913;0.012991992305202543;164.0;0.17351956821495976;0.10355639397108977;0.010759138880300582;156.0;0.16857097944927027;0.09484253202827178;0.009023503904847739;155.0;0.1652014303935046;0.08882501657270153;0.007914697265221012;156.0;0.16125294006813687;0.08383143142100385;0.007050336209547465;160.0;0.15753920403117955;0.08128782964221203;0.006628813097975914;161.0;0.15543652501106162;0.1265282785407559;0.01606248361048156;149.0;0.1888786732412186;0.11710572496986175;0.01375890602526316;152.0;0.1788218599515758;0.14903354726727142;0.02228388022181111;141.0;0.18737178349306424;0.19554355882136498;0.03836212065195555;150.0;0.21194122905652613;0.158138001213924;0.025088449732639302;150.0;0.21155432420957457;0.10993412790890164;0.0121228505168449;166.0;0.20736802077175218;0.1167515067716092;0.013672812098466946;165.0;0.20261099821808906;0.11011350344937848;0.012163587649002383;171.0;0.1884344185382211;0.09792546934421754;0.009619809146771928;152.0;0.16584268601967592
0.04422523917345508;0.0019574794888062587;175.0;0.1210622237716863;12.0;0.035725857399348665;0.0012757579650468263;177.0;0.10729601418769093;0.03888710037936238;0.001513044259443951;176.0;0.10980831079568526;0.043114698225358024;0.001861049508086027;181.0;0.11412490732189967;0.03765645539469153;0.0014186772127690588;180.0;0.10865475074502379;0.03444858682393251;0.0011875734453495458;175.0;0.1056656933704332;0.03427545697240465;0.0011749084469725036;171.0;0.1047182648886913;0.0579462714216562;0.0033627709396619665;173.0;0.13367977147548699;0.04284634348323622;0.0018314305875909097;167.0;0.11474868636268643;0.04654595664203382;0.002160968583301165;158.0;0.12126780961052194;0.04875254812998744;0.0023775215042883195;165.0;0.12891172587221708;0.04972226326770776;0.0024758650134667605;156.0;0.1321711539232859;0.04597525679545711;0.002113165846794456;157.0;0.1360867214909111;0.04531385144961218;0.002052921661031974;166.0;0.13537322661769996;0.04069500191837302;0.0016567185196723175;170.0;0.1254814417546187;0.03516021518266844;0.0012350934484597026;169.0;0.10656811330380019;0.10055963156133585;0.010137127082581552;160.0;0.16283857194307766;0.0979396613645465;0.009616647283058404;161.0;0.16016007810519117;0.08483388319880505;0.0072156607575037755;157.0;0.15390135842503824;0.07745459445760344;0.0060161902711698585;164.0;0.15064014631947578;0.07438567648509216;0.005547291022338765;161.0;0.14626080461016222;0.07082058238325495;0.005027237317457657;165.0;0.14268741676246094;0.06899833303181267;0.004771375481091711;165.0;0.14040382494161333;0.09076105655560064;0.008246979800528282;161.0;0.16276965703266363;0.09791558468893094;0.009608421360789815;155.0;0.15036887772546434;0.09563203664594104;0.009163641433691147;145.0;0.1519466595851805;0.10366181217763974;0.010762550930729713;150.0;0.16277990408742007;0.09779202590282618;0.009585626973943885;151.0;0.16992672780629314;0.08293014262690483;0.006897291422753835;166.0;0.17117568668722458;0.07641628397764454;0.005858207151472235;160.0;0.16571053622078594;0.0695603078396027;0.004854442411086315;155.0;0.15725591274489245;0.08438413184383314;0.007136415568308989;155.0;0.14460604592610238
0.06180626915624191;0.0038306265890355297;164.0;0.13850972915954538;12.0;0.05030076761343817;0.00253606788433628;165.0;0.12169074443312126;0.05083383848499735;0.002591320810072703;154.0;0.12222309749273759;0.052517998424802176;0.0027664678193817724;157.0;0.1256015598865964;0.04583430401655303;0.0021070264456209734;158.0;0.11996810698083413;0.04216553535150397;0.00178349114580059;159.0;0.1166155080118254;0.04068621755386763;0.0016605547816376457;162.0;0.11566110575460455;0.08029570928804924;0.006467386901278538;166.0;0.15281472356286707;0.046342111847436536;0.002153504002661188;151.0;0.12015272318333736;0.050518697163874145;0.0025582751937003587;152.0;0.1266017418388431;0.05463795431070854;0.0029939215546121232;164.0;0.14077450868649094;0.059570096830665664;0.0035585561234711053;145.0;0.14133667029200364;0.05881766031229727;0.0034686977507355863;144.0;0.1455000451814094;0.05749153322808179;0.00331298134730614;152.0;0.14421900331872012;0.052451097684010344;0.0027568594631049064;157.0;0.1328305604705961;0.04092983578049802;0.0016801064761578016;156.0;0.11464847493722075;0.08653111343193058;0.007511420229840503;147.0;0.15980522095127836;0.0849303493847155;0.007236558366378463;147.0;0.15398749272042964;0.07558911525412557;0.005731820541829096;140.0;0.14735818796527905;0.0690944784061839;0.004788092936183532;143.0;0.14443642553741903;0.06304417405434863;0.003986698987466003;138.0;0.13800050662162178;0.05982489085491972;0.003590067383553207;141.0;0.1349470473482337;0.05794837640998399;0.0033681011018838808;146.0;0.13378272820691345;0.08024880974326855;0.006459381854611094;147.0;0.15866624849176553;0.08850855077295643;0.007859373304644245;142.0;0.14843925081976048;0.08238504206589978;0.006808354336553801;141.0;0.14854838499812617;0.0859345026722268;0.007406865323678067;138.0;0.15977837578679105;0.0816546859276938;0.00668847972212004;134.0;0.16391720868934742;0.07360554640504102;0.00543269171887286;159.0;0.1606792771053502;0.07178754729075573;0.005166333383388236;157.0;0.1590277098490355;0.06967431403028033;0.004867433256676674;147.0;0.1551421750937911;0.07365930297418916;0.005443453599226024;145.0;0.14172326563615956
0.06495629883328012;0.004232889905068077;152.0;0.14846195965750852;12.0;0.05472854594853728;0.003004061840421117;152.0;0.13507218397491233;0.052671224533011804;0.002782055992261011;148.0;0.1317572810056389;0.05114832716544632;0.0026230432544190135;146.0;0.13063932467722514;0.04352827599388599;0.001899597953739052;147.0;0.12183402805150474;0.039812022952522334;0.0015892745407455494;150.0;0.11796244426260816;0.037863048384373;0.001437536208036879;150.0;0.11749116046210498;0.08029177953350856;0.0064678766779821826;149.0;0.15826186754959778;0.04596279017793388;0.002112224241854076;143.0;0.12379248658165813;0.052793847919202316;0.002788104088973434;144.0;0.13148727865963664;0.05420490934961244;0.0029426839721792097;156.0;0.1441931998837478;0.06082540488633929;0.003711180489106268;147.0;0.14501626427725725;0.06158936533383171;0.0038047385269607444;143.0;0.14383414357268054;0.06217121528132358;0.003877605950499211;146.0;0.14558458511227654;0.05544501479473322;0.003083837093200154;145.0;0.13792605835708757;0.03909885576109414;0.0015314144708575097;140.0;0.11723108736728936;0.0735365812569093;0.00541154554405886;158.0;0.15082833512878419;0.07307216437194329;0.005349579886826921;157.0;0.14700069813596592;0.0612495714525081;0.003758991582588933;149.0;0.1378297940881804;0.055151400650374965;0.003049101682652671;142.0;0.13505969696898748;0.052789994986812645;0.0027938378704113107;143.0;0.1320477390660923;0.05147413363050962;0.002656022016686924;141.0;0.1305148689536326;0.04942215384996077;0.002449165732535892;151.0;0.12892855413328252;0.06964729036159453;0.004857282144139202;151.0;0.14793594959807263;0.06020063788616241;0.003635234017735579;145.0;0.14096276529557433;0.0631442706936478;0.003999855141407916;147.0;0.1454395604615438;0.07280180122660203;0.005316958943294669;144.0;0.15305801596242277;0.0672439364492253;0.004536606232893701;146.0;0.1523579117398918;0.0617553228050956;0.003825693664988519;162.0;0.15013845990457586;0.0642337351821977;0.00413861836834841;159.0;0.15299196056822864;0.06407015787062828;0.004116998025719314;157.0;0.15022373351703916;0.05231451569445916;0.0027449606367011383;152.0;0.13471174475993128
0.06125238945303394;0.0037613706696165124;155.0;0.14341619275861497;12.0;0.050325955111810386;0.002538164130664093;157.0;0.13115225276826323;0.04680297207690267;0.0021963299601712193;152.0;0.13002832696870528;0.04537812115025222;0.00206535767762989;148.0;0.12926344254337332;0.03905733922973207;0.0015291976887145428;152.0;0.12123997744498316;0.035590019076411676;0.0012693834449082147;155.0;0.11654950683044735;0.034994392192657334;0.0012273324553091507;153.0;0.11561278435469495;0.07676338875495771;0.00590948750633532;147.0;0.15367731092198827;0.0442764274199941;0.001964584842201255;156.0;0.12452149639884962;0.04981263040777113;0.002488156774052066;156.0;0.12944070452703388;0.05124453385081863;0.0026338659663267274;160.0;0.13692954960337922;0.055429851844507404;0.003079122137756532;151.0;0.1396008313548665;0.05524857048205964;0.003059950405001669;146.0;0.1393905854922215;0.05406108777430342;0.0029304961689705974;150.0;0.13949507017264395;0.05102597653211587;0.002610005749310485;149.0;0.13502913015699833;0.03760996083091633;0.0014164971504689345;152.0;0.1167138675907451;0.06503770421175177;0.004239507868680025;167.0;0.14275675096514312;0.06148401241652804;0.003787234153594349;166.0;0.13894986226954645;0.049274663072925;0.002431847116368899;166.0;0.12904676440257712;0.04576524771904585;0.0020973545000938167;165.0;0.12787581728384753;0.04565191460883166;0.0020885312644124696;169.0;0.12611180501670666;0.04525197819279874;0.002053045839644926;162.0;0.12574246841498207;0.043744179069168096;0.001917846812423743;167.0;0.12411161570122617;0.05924219654282694;0.0035202992942622666;166.0;0.13945356719178031;0.05230875525494663;0.002744753219349539;154.0;0.13603829977417198;0.05801667866455316;0.0033752593489013265;153.0;0.14281750462642054;0.06725645710404565;0.004533593789643684;154.0;0.14878014598304368;0.05436425551810746;0.0029636785104520595;152.0;0.14587922280541107;0.051599800694752236;0.002670383938968853;155.0;0.1470315893160466;0.05234595888184595;0.0027477412105178377;147.0;0.14359003681000926;0.04953132805821892;0.00246061866290067;149.0;0.13646376787559353;0.04440579848295317;0.0019779013035075023;162.0;0.1288406894633747
0.06279083311878537;0.003953590935843825;151.0;0.14461709504816023;12.0;0.05034954027224315;0.0025413919915657796;146.0;0.13219423763819507;0.04450002705305928;0.0019857435595719932;139.0;0.13124775629849758;0.042540245377395626;0.0018154766866609778;137.0;0.1313044526702078;0.038800459859505115;0.0015098209344814335;143.0;0.1253499249283745;0.03680692417773939;0.0013584146707369621;147.0;0.12059702352521016;0.03629358659926412;0.0013201841591357344;146.0;0.11910871465417129;0.07725407379369448;0.005985436292912813;143.0;0.15548815844310293;0.03918606381393724;0.0015398505614049964;153.0;0.12699815287730398;0.04389013647835078;0.0019311864671659644;155.0;0.13248436734948477;0.05153109648174935;0.0026624360705362173;162.0;0.14052484025651266;0.05241253179455822;0.0027548980484437134;149.0;0.13598885844235858;0.052946204042783426;0.002810899163249905;140.0;0.13905953004683924;0.052094377917209715;0.0027215397538860337;148.0;0.14024963142477065;0.04954415970629817;0.002462356025646334;148.0;0.1353046001659734;0.03613608534169814;0.0013092331453589796;145.0;0.11949614528953979;0.06449292172876538;0.004172580914585444;157.0;0.144884512399367;0.05871780681988246;0.0034590595175976167;162.0;0.1382606659557305;0.049953158174368496;0.002503263364007046;158.0;0.13109826864020807;0.04364369110117139;0.0019108307076475392;156.0;0.1282610086677953;0.03917168403156254;0.0015393585838217971;156.0;0.12331233171690172;0.03748526899250976;0.0014097131474629127;151.0;0.1215609243498248;0.03686508473909261;0.0013634804632549982;155.0;0.11982072199530305;0.061355090876991036;0.0037768168171952686;158.0;0.14490587399118784;0.04965554592435583;0.00247146021280652;154.0;0.13345132686902922;0.05710424742779586;0.00326772327390586;157.0;0.14275479079045036;0.07404958699282137;0.0054961356688719406;156.0;0.16086899507891472;0.06577933321734211;0.004336751422780178;144.0;0.1643370256647589;0.06382560095882124;0.004086603878095078;152.0;0.16993802044221853;0.06143763049801885;0.0037868641453374964;144.0;0.1650551226340619;0.05208701065189055;0.002721847419301125;145.0;0.14978087196107462;0.04282972408366458;0.0018387850271658712;160.0;0.12671868612403916
0.05340160088834597;0.0028587607297880548;151.0;0.13741446646515845;12.0;0.043884925831771664;0.0019298407923119343;145.0;0.12644485736850936;0.038861286848837454;0.0015124815073389558;147.0;0.1254968428973434;0.03727296762847683;0.001392406261929155;148.0;0.12590378942004601;0.03428017606253986;0.0011775733565324736;147.0;0.12025166538552327;0.0328364818517256;0.0010804013521682823;148.0;0.11703058896435477;0.03234692224814711;0.0010483251465076044;152.0;0.11566566796559558;0.06421630176437965;0.00413427214113493;144.0;0.14819005551028375;0.03349930740409873;0.0011244447258201055;159.0;0.12221791792126796;0.038803787125959055;0.0015099625970140412;159.0;0.12898948866683194;0.0463548486219815;0.002155718404274304;167.0;0.140381561404582;0.047889801778254526;0.0022996268347066137;142.0;0.1408106439556243;0.048308449101749834;0.0023391622811183227;138.0;0.14202115611338428;0.04814961686244301;0.0023242357215830763;147.0;0.14285524406340766;0.04317831377348317;0.0018695141105766297;144.0;0.13375504490381568;0.03026861096202125;0.0009184962730618237;155.0;0.11524196823213263;0.07477713431822336;0.005609424047267745;161.0;0.1490102949039312;0.07210875343294983;0.005216258235783336;166.0;0.14386525325610877;0.0597018592865468;0.003575544794298876;152.0;0.13410441239916224;0.049478853793510406;0.0024562058037670836;145.0;0.12694221143470383;0.044749976219960526;0.002009037861009874;150.0;0.12270374321823578;0.042119277386342614;0.0017796878656976636;146.0;0.12029171616228959;0.04054397765810851;0.0016489792677016346;151.0;0.1196617144672112;0.06990600982693983;0.0049018647757953695;158.0;0.14766840707176979;0.05610002529466554;0.003157372894407269;164.0;0.13554749996293863;0.0631932223896761;0.004006396438916482;168.0;0.14302127282466304;0.07638676774505901;0.005853741004062834;171.0;0.1585969682052309;0.0690867189328233;0.004787988835265968;165.0;0.16166627015651933;0.0671283320230148;0.004520125058390276;166.0;0.16819074470150439;0.06753521574976384;0.0045747419277283536;160.0;0.16917242802182428;0.0601390033119447;0.003626871911915613;159.0;0.15643169604598134;0.04820566654132057;0.002331019426608632;170.0;0.12924183317710577
0.042419320446375905;0.0018045901993427949;165.0;0.12483010017402088;12.0;0.03626984565966175;0.001319307336317012;160.0;0.11585335037209793;0.03424098918536925;0.0011762521458262643;154.0;0.11724410017813128;0.033786710585589054;0.0011452732187922665;155.0;0.11744419617177378;0.029689784922917514;0.0008843603672256669;156.0;0.11108024818494593;0.02845146270393516;0.0008120993987724785;152.0;0.1092762192763919;0.028925244662108263;0.000839273546646618;159.0;0.10770276942212446;0.050689980199164236;0.002577391649952832;160.0;0.13235121594381793;0.035212986710887045;0.001243996575895599;162.0;0.11241906950534981;0.03839027612674455;0.0014783161322593442;165.0;0.1173499511210812;0.03999260373663403;0.0016044039463845193;168.0;0.1259481989674704;0.04106688960899461;0.001692092607677848;155.0;0.1297448997287631;0.04014460739408532;0.0016169309000730488;158.0;0.13155154387611281;0.0409394828311092;0.0016815805688994185;161.0;0.1321774827943533;0.03832100507690708;0.0014733252166687777;157.0;0.12466496289911883;0.028388396857199273;0.0008085552903585114;168.0;0.10664225687234266;0.07839940242430625;0.0061659536382366684;161.0;0.15114443513961312;0.07614871435338243;0.005817493761074221;167.0;0.146287380754191;0.06074165122619303;0.0037015750579842276;163.0;0.13309325578769132;0.050805854812755756;0.002589703773669862;161.0;0.12613271211982172;0.047996967087486575;0.0023112677872832634;164.0;0.12396180820350738;0.04609958568796933;0.002132037243294659;160.0;0.1217705718071918;0.04388002297123186;0.0019316617379229982;158.0;0.120931173745591;0.07037005981843038;0.004968111494239084;159.0;0.147984722254716;0.056778670930656264;0.003233083991760455;162.0;0.13554732541212572;0.06230991411770974;0.003893842961583426;155.0;0.14007831458680592;0.06410886552057478;0.0041229304718132;160.0;0.143782122724456;0.05875301959904303;0.0034631797327570346;165.0;0.14633367426074811;0.061022653329226004;0.003735671235182728;160.0;0.14999711870314117;0.06420734275904912;0.004135265661262285;161.0;0.15067669915210022;0.0618484236624349;0.0038364439954982174;156.0;0.1450099974684961;0.05142368534489388;0.0026520342425344224;163.0;0.1321491414754981
0.037569608825154796;0.001415778849831929;172.0;0.11618634869877273;12.0;0.032683366872367066;0.0010711481337293623;165.0;0.10989225339041413;0.032603238680720306;0.0010656149660408006;151.0;0.11344864010128385;0.032711714810982735;0.0010725027430599228;150.0;0.11501847937648925;0.029190149896553053;0.0008544410405555662;158.0;0.1098138799887315;0.028437380483898357;0.0008111774144891508;158.0;0.10731957178718479;0.02903371088131153;0.000845717182435228;158.0;0.10618934116539623;0.04210685708566242;0.0017785751180395572;165.0;0.11940284348012362;0.036236377297987316;0.001316497759614905;161.0;0.10723040032227231;0.03957070623035802;0.0015707988953514922;156.0;0.11227609662273068;0.045377340773629635;0.0020658432950276745;155.0;0.12194942505629079;0.0459123697873516;0.002114592283589664;173.0;0.12418966975042837;0.04542570861965027;0.0020691089307158083;170.0;0.1279736089229948;0.046208168941247976;0.002141981030086093;163.0;0.1301751104190186;0.039613317322421064;0.0015739372499033696;161.0;0.11971759773593353;0.029410209396456076;0.0008676708890762037;165.0;0.1016477729363975;0.07716449801074643;0.005973202356820314;147.0;0.15909164507181292;0.07443279005506967;0.005557986515607027;159.0;0.1521639708326696;0.06159395568237103;0.003806147984588587;161.0;0.13330104583454255;0.05308579908753776;0.002827307775442551;155.0;0.1257901739458484;0.04973629601268028;0.002481818932907064;158.0;0.12312730507556813;0.04789284844463449;0.0023012476246130967;155.0;0.12095597530133136;0.04623772706460536;0.0021449351534756104;159.0;0.11919395228735329;0.06651537453317448;0.00443838168329433;153.0;0.1495424318068714;0.05403694560876373;0.0029287162494771885;169.0;0.1334538236964687;0.057726919740286146;0.0033416787348788998;152.0;0.14155051283973227;0.06237672576489114;0.003901355819202283;153.0;0.1500928860562965;0.06102558579323994;0.003734558906457066;151.0;0.15295864780244312;0.06384252002934317;0.004088113525554423;156.0;0.15356928501867048;0.0631473401964772;0.004000673124547662;152.0;0.15336020342495094;0.05976692544912991;0.003583792439321324;150.0;0.14639001105149288;0.054065379468402924;0.0029323263391052502;151.0;0.1323626216453507
0.032335635821648376;0.0010487534100118265;161.0;0.10209048278980619;12.0;0.02717190567796026;0.0007404461675498149;155.0;0.09719405904254279;0.028099791563714213;0.0007920032786080098;150.0;0.10342731613946841;0.029601095916511916;0.0008787917193944869;143.0;0.10709950250396774;0.026625152943471554;0.0007107612268014399;152.0;0.10126095398760901;0.025792605165881857;0.0006665856675649255;151.0;0.09776872721124402;0.026175237638334545;0.0006859618804103192;151.0;0.09689723677474697;0.03565424112937231;0.0012750487782926547;155.0;0.1056619869240526;0.03179728640526038;0.0010140778068440017;154.0;0.09823622424286593;0.03325180634558884;0.001109037262872455;144.0;0.10047786532646248;0.04061226771280429;0.0016544733516438395;144.0;0.11138861930901994;0.04305445752660448;0.0018592670653386633;161.0;0.11803962901434402;0.0432220069378283;0.0018739985996871992;159.0;0.1224689028592549;0.04383961542378427;0.0019280735403119618;151.0;0.1242149233187405;0.036490687172952715;0.0013358670586386347;149.0;0.11141424689091178;0.027535223490027547;0.0007603386459467473;153.0;0.092367462902129;0.11174020443112616;0.01252656357488309;153.0;0.1786004010037269;0.11240292420146872;0.012675332742937159;156.0;0.1748205449978225;0.09206475023776589;0.008502521937826954;156.0;0.156710075014023;0.07916659043680138;0.006285511058538113;155.0;0.1476241623669672;0.07535261589911912;0.005695192339151207;158.0;0.1434503257396187;0.07211837513720887;0.005216714579587774;153.0;0.14160351358238227;0.06873811704819267;0.004739257176211907;160.0;0.14024757301322585;0.09936939402444975;0.00990171493361209;162.0;0.17264838084672013;0.07052910994901002;0.004987178910939778;177.0;0.14726310935208783;0.07919071011819553;0.006283454141963392;158.0;0.15601529359031213;0.09046849072663628;0.0082060175479362;157.0;0.16607980531211589;0.0856680567565552;0.007361332114917907;152.0;0.16739237871615362;0.07893919724185337;0.006251388121653029;154.0;0.1683962771858014;0.07562189072016788;0.00573671361142514;151.0;0.169092107185761;0.07376953578896361;0.005458634640248009;154.0;0.16201325236989028;0.06711975262478947;0.00451892140784467;161.0;0.1440463053665263
0.02733598726842949;0.0007497029582883661;152.0;0.09121868549292968;12.0;0.02364385504775266;0.0005608303965570514;158.0;0.08947482796948544;0.024904085100560403;0.0006222474816358278;159.0;0.09767665181940699;0.026479938880412727;0.0007034948292009054;152.0;0.1008290027356937;0.022902808110232032;0.0005262509549205631;155.0;0.09208368267173146;0.022142158804956975;0.0004918716772033241;154.0;0.0874138527304652;0.022724068964920723;0.0005180725211875295;155.0;0.08461730039183923;0.02904636976799894;0.0008464471954790737;152.0;0.09356278331655705;0.03078630522775781;0.0009503378189066858;139.0;0.09014908992718063;0.032766949217477415;0.001077022456625558;133.0;0.09174827686229484;0.03511996821907838;0.0012371370261133837;145.0;0.09730403195907383;0.03938423458622997;0.0015553560096604054;146.0;0.10609198244251723;0.03486784030135787;0.0012185136388180213;145.0;0.10831903146642866;0.03049103311431003;0.0009324903931984912;142.0;0.10696315422197629;0.02691937734113478;0.0007269640730694613;152.0;0.09674809832398938;0.027123483071883267;0.0007379694877579417;143.0;0.08525120650378311;0.11493770952484872;0.013250320412437271;151.0;0.1771813446840434;0.11542275577321975;0.013363643940762409;148.0;0.17559774991793534;0.0937975428376764;0.008824621247889804;155.0;0.16335949847319864;0.08004499151509664;0.006426998438570312;161.0;0.15472402703194152;0.0751096593559976;0.005659393220990987;157.0;0.15057014939130936;0.0721348512027744;0.0052202401416764225;152.0;0.1488121815307765;0.06860235529671047;0.004721022138918663;144.0;0.14748429749091377;0.10811211745772643;0.011724545720315789;158.0;0.1804584225872863;0.08022614441868876;0.0064530915337443345;163.0;0.15256632546696622;0.08797535491041987;0.007762497869908253;151.0;0.15867377651091355;0.09843177390171584;0.00971583244813113;146.0;0.1669389794435729;0.09517481336611941;0.009085085670966326;151.0;0.17169465859777366;0.08096789398566924;0.00657452183109681;152.0;0.1706183884907491;0.07903659147289309;0.006267203809159711;147.0;0.17370117856949205;0.0779859324947002;0.006101715759219246;153.0;0.16855872634899466;0.0704894607957339;0.004981362936048701;160.0;0.1470858623700895
0.033527760999316106;0.0011269583952703268;150.0;0.10176546018893855;12.0;0.029159858252157996;0.0008529432586334661;156.0;0.09814972239909167;0.031142946795000428;0.0009730169207959211;164.0;0.1023914638521525;0.03304102415499601;0.001095276343590287;158.0;0.10443374595587938;0.027571448480794424;0.0007626619722140211;156.0;0.09662247002830766;0.024825644621285108;0.000618233842899648;156.0;0.09180408997121778;0.02409546034777667;0.0005824324255489291;160.0;0.08908513240784156;0.0358271798915689;0.0012869188844105493;155.0;0.10411831452442828;0.030751338913258323;0.0009468579970574606;153.0;0.09644175026963164;0.034813655034871105;0.001214221063282955;149.0;0.10055818597956383;0.03831859185561682;0.0014720742683418568;156.0;0.10596979399165701;0.04161669431175044;0.0017372439890030525;157.0;0.11215787563075968;0.036745066981958646;0.0013545340293082656;152.0;0.11443906215607189;0.0340110955070904;0.0011605378198203248;150.0;0.11441014750198655;0.031348656683035624;0.0009856309496288958;163.0;0.10720499353447555;0.027237110675678904;0.0007434635220158641;152.0;0.09064506481401254;0.08813945752873222;0.007793893614358025;143.0;0.1595864161178159;0.08589302924652266;0.007401625479979679;156.0;0.15661215560961292;0.07318582278126468;0.005373668388830025;159.0;0.1511092975029661;0.0644886427287725;0.0041722099744523474;158.0;0.14608627323712098;0.057542722245484956;0.0033216514112042314;148.0;0.13991045950791628;0.05455900146329624;0.0029860311187329003;140.0;0.1360457605289122;0.051720469094279097;0.002683230690960691;134.0;0.13349840615188593;0.09245377474352824;0.008573892968180747;151.0;0.16223164206801408;0.07333933762822094;0.005393867352680231;145.0;0.14520910778034068;0.07873975873285201;0.006212415061874833;152.0;0.15190362206312066;0.09245859201961107;0.00856378594517349;146.0;0.16196659730094007;0.09396100365970513;0.008852901823379677;157.0;0.16956496104700308;0.0755044882490165;0.005717434300250368;157.0;0.1624911311295937;0.07368360362774697;0.005445746196540491;141.0;0.16250903178107964;0.07146408210990096;0.005123228887039591;147.0;0.15864896309681478;0.06189741148989939;0.0038435587515062695;148.0;0.13704045670894802
0.0410441081917817;0.0016895162377221617;143.0;0.1144302539196333;12.0;0.03380314690991848;0.0011459495169275848;140.0;0.10564557098136892;0.034662323868494584;0.0012051743693009772;142.0;0.10633731678442598;0.037141861154748;0.0013838612782747766;151.0;0.10931655027455191;0.03142539470966409;0.0009906737052620136;146.0;0.10221545657872742;0.028342573018991485;0.0008057935687799431;146.0;0.09896639010766436;0.027224059335924502;0.0007434942768664429;145.0;0.09766550655870744;0.045754264649453764;0.0020990714409933674;147.0;0.1169157690738036;0.03252933931212735;0.0010610251764518186;150.0;0.10208164016711012;0.03732062488390473;0.0013965278866801792;152.0;0.10858666920817821;0.04039874479416658;0.001636162890132583;158.0;0.11235451940069381;0.03962469245123692;0.0015743522532121388;161.0;0.11380567311590144;0.0390216159652127;0.0015271937752757841;156.0;0.11520885366347647;0.03827617611689581;0.0014696134111687668;149.0;0.11463854888699478;0.034338872960999925;0.0011826347075391268;151.0;0.10928636185490778;0.02784115296695838;0.000776890806034516;143.0;0.09653590525331603;0.08791775639939296;0.007754541572427333;150.0;0.15393786335050907;0.0831685643723226;0.006939446943587711;158.0;0.14852951238757814;0.07089554470606779;0.00504257413632217;158.0;0.14396572897009996;0.06365601739713393;0.004065057549026924;148.0;0.14258295201661914;0.05844537823743062;0.0034267401776250364;144.0;0.13701906728683227;0.05537728252514767;0.0030759753715040076;139.0;0.1338473245015114;0.05209251503467844;0.002722151246725109;140.0;0.13105347880641083;0.08733616760330438;0.007652521394692267;159.0;0.1516497596984179;0.0641233101527228;0.004123370808756933;156.0;0.14410986888993504;0.0724696473657767;0.00526806503798706;163.0;0.15259939608134462;0.08848471262642744;0.007854863989707854;152.0;0.1590032704831613;0.08818522639539203;0.007801134752021305;156.0;0.16450040776797728;0.07139878210588545;0.0051126275421039605;152.0;0.15696164105291932;0.06954325610148276;0.004850863070415945;150.0;0.15370442676891602;0.06715242052827876;0.004523564483289926;153.0;0.14765880259946787;0.05741483997496953;0.003305569373189576;159.0;0.13663997704838396
0.05952427597851432;0.00355266699683791;149.0;0.13616235189103487;12.0;0.04593132871128379;0.00211582041394156;148.0;0.121154358609186;0.04062855219871882;0.0016560748983281092;145.0;0.1195440460032162;0.04018973560547983;0.0016205357239662452;158.0;0.1234448223054952;0.036314842079717885;0.0013230590173427524;151.0;0.11514864241448901;0.03590344235852632;0.0012931005552116034;148.0;0.11361271712955526;0.03620747007956684;0.0013149741445609056;140.0;0.11197618981458388;0.07306061320347725;0.005353069400246003;148.0;0.14688746268760058;0.04288353628695593;0.0018433308887825977;141.0;0.11767337088913783;0.04802577496465563;0.002311825702199817;149.0;0.12618015766959081;0.05179303908307759;0.002689546524193861;156.0;0.13218208358072647;0.057325066618348325;0.00329639005158779;160.0;0.13317474101267773;0.055638172488879103;0.0031048441508200663;153.0;0.13235889763112535;0.05271267719268407;0.0027866795757174674;147.0;0.12935257426831123;0.0495852280925207;0.0024639235331538;151.0;0.1228262067229417;0.036995435597624984;0.0013721693521632859;142.0;0.11071486421109779;0.08125830366893594;0.006612754564334258;155.0;0.15118774088426556;0.07816279138813466;0.00611906217502772;150.0;0.148827713374042;0.06339446597833677;0.004024565537791223;155.0;0.14070263457328275;0.055469384288984604;0.003083719822606705;151.0;0.138351142796305;0.0515452448173971;0.002661471017837746;149.0;0.13417121275290694;0.04884349270734211;0.0023911473413636836;146.0;0.13245252322172357;0.04583459501686834;0.002105658448944385;145.0;0.1301603301670455;0.07490163882237989;0.005622643266814749;157.0;0.1490700421557537;0.04988481813403034;0.0024907867661372062;170.0;0.1377984291977601;0.053975936135523116;0.0029081455698208997;167.0;0.1415888135906262;0.06107010868879694;0.003716433709231559;155.0;0.14426561076295302;0.05872432068960976;0.003436392143817139;147.0;0.14636805652024243;0.051114502385155705;0.0026045446891678923;147.0;0.1423535025715338;0.05191226110326308;0.0026931451464486202;146.0;0.14327619773440942;0.052286190711331615;0.0027368871376760332;153.0;0.1374785289164185;0.046515213872820725;0.002167262741651271;171.0;0.1335507131948914
