rms_s1_ch1;var_s1_ch1;zcr_s1_ch1;wl_s1_ch1;rotule;rms_s1_ch2;var_s1_ch2;zcr_s1_ch2;wl_s1_ch2;rms_s1_ch3;var_s1_ch3;zcr_s1_ch3;wl_s1_ch3;rms_s1_ch4;var_s1_ch4;zcr_s1_ch4;wl_s1_ch4;rms_s1_ch5;var_s1_ch5;zcr_s1_ch5;wl_s1_ch5;rms_s1_ch6;var_s1_ch6;zcr_s1_ch6;wl_s1_ch6;rms_s1_ch7;var_s1_ch7;zcr_s1_ch7;wl_s1_ch7;rms_s1_ch8;var_s1_ch8;zcr_s1_ch8;wl_s1_ch8;rms_s1_ch9;var_s1_ch9;zcr_s1_ch9;wl_s1_ch9;rms_s1_ch10;var_s1_ch10;zcr_s1_ch10;wl_s1_ch10;rms_s1_ch11;var_s1_ch11;zcr_s1_ch11;wl_s1_ch11;rms_s1_ch12;var_s1_ch12;zcr_s1_ch12;wl_s1_ch12;rms_s1_ch13;var_s1_ch13;zcr_s1_ch13;wl_s1_ch13;rms_s1_ch14;var_s1_ch14;zcr_s1_ch14;wl_s1_ch14;rms_s1_ch15;var_s1_ch15;zcr_s1_ch15;wl_s1_ch15;rms_s1_ch16;var_s1_ch16;zcr_s1_ch16;wl_s1_ch16;rms_s2_ch1;var_s2_ch1;zcr_s2_ch1;wl_s2_ch1;rms_s2_ch2;var_s2_ch2;zcr_s2_ch2;wl_s2_ch2;rms_s2_ch3;var_s2_ch3;zcr_s2_ch3;wl_s2_ch3;rms_s2_ch4;var_s2_ch4;zcr_s2_ch4;wl_s2_ch4;rms_s2_ch5;var_s2_ch5;zcr_s2_ch5;wl_s2_ch5;rms_s2_ch6;var_s2_ch6;zcr_s2_ch6;wl_s2_ch6;rms_s2_ch7;var_s2_ch7;zcr_s2_ch7;wl_s2_ch7;rms_s2_ch8;var_s2_ch8;zcr_s2_ch8;wl_s2_ch8;rms_s2_ch9;var_s2_ch9;zcr_s2_ch9;wl_s2_ch9;rms_s2_ch10;var_s2_ch10;zcr_s2_ch10;wl_s2_ch10;rms_s2_ch11;var_s2_ch11;zcr_s2_ch11;wl_s2_ch11;rms_s2_ch12;var_s2_ch12;zcr_s2_ch12;wl_s2_ch12;rms_s2_ch13;var_s2_ch13;zcr_s2_ch13;wl_s2_ch13;rms_s2_ch14;var_s2_ch14;zcr_s2_ch14;wl_s2_ch14;rms_s2_ch15;var_s2_ch15;zcr_s2_ch15;wl_s2_ch15;rms_s2_ch16;var_s2_ch16;zcr_s2_ch16;wl_s2_ch16
0.035649626020868685;0.0012749430772666954;148.0;0.07885439432709307;12.0;0.04877718092206792;0.002384233480912807;152.0;0.08300520545872644;0.058275640637331816;0.003401523155178127;149.0;0.08689621667847632;0.06311658827235393;0.003989315782860991;150.0;0.089372750145024;0.06395073593462185;0.004094449795142956;151.0;0.08833719780543538;0.06160594855234984;0.0038002948064117924;149.0;0.08767888005327924;0.05759391575216275;0.0033214218558696596;155.0;0.08591664431085606;0.03630495747257044;0.0013222387819794843;153.0;0.0786671203338407;0.05015944758543819;0.0025210958456089463;157.0;0.08249756915433017;0.0480363594878713;0.002312790018733452;156.0;0.08165916180530564;0.048022322268430145;0.0023119423533490184;155.0;0.08162523811234933;0.0475873706557104;0.00227109685566225;149.0;0.08170128870306016;0.044850704940802545;0.002018065746036904;147.0;0.08012158185408007;0.044123375133821204;0.0019529908430648965;151.0;0.07970641427123498;0.04558084515512995;0.0020840901937829804;142.0;0.07889518858291585;0.05799749432252377;0.0033720998950437695;157.0;0.0969320235672559;0.10817143491088706;0.011739245202055668;143.0;0.15826016922679637;0.10960055576547767;0.012051564363671923;146.0;0.15923555260364114;0.10796116666180199;0.01169362269868006;147.0;0.15822047678866621;0.10405602629696424;0.010863123698366374;148.0;0.1556302943785796;0.09812811631218807;0.009660624082177362;145.0;0.15225435743056737;0.09284187037396902;0.008647791628013483;145.0;0.1488340956484053;0.08932852501237347;0.008005602485353874;139.0;0.1463355680844568;0.10331797159936655;0.010708734333329452;140.0;0.1569856260444409;0.08482873234952497;0.0072194783796750775;140.0;0.14240883357207457;0.08420751576275821;0.007114115295297016;144.0;0.1420799490177996;0.0837154905587921;0.007031176979476576;142.0;0.14127259912024445;0.08482509082922295;0.007218844438511121;146.0;0.140511745645045;0.09109082049777051;0.008324264901200463;148.0;0.14502385501806692;0.09522942588924442;0.009097822578600727;153.0;0.14520469330055102;0.08835204560961628;0.007831629977313912;147.0;0.14371985378374924;0.08442528614834706;0.007150976808356348;139.0;0.1413932805085339
0.05870799852331251;0.003448381817250411;148.0;0.10344699332212358;12.0;0.07486899483683938;0.005608897665264469;157.0;0.10818813310346118;0.08802520454666897;0.007749900422977012;160.0;0.11367734246172372;0.09469035753808294;0.008971145647435083;161.0;0.11618403256231828;0.0965626255083589;0.009324865112548255;162.0;0.11638632003180982;0.0931517102041217;0.008678969877202125;160.0;0.11437464060368112;0.08819567911464062;0.007780344401293328;165.0;0.11159415887118972;0.059984012605418705;0.0035999793525455645;149.0;0.10297921983488507;0.07677188439658861;0.005895887661637241;162.0;0.10674009381931353;0.07308133003019678;0.005342234362229788;163.0;0.10495949362800763;0.07246552743982854;0.005252048612817746;165.0;0.10390252736277415;0.06997307499514029;0.004899087464066597;166.0;0.10337406694120146;0.06798490750387225;0.004625345635372575;162.0;0.10316285840299379;0.06826966411353667;0.0046629130410675065;162.0;0.10234085110966024;0.06990792596564281;0.0048864146225181225;161.0;0.10337892298227219;0.08244423772763258;0.006815794496215008;151.0;0.11134714492131702;0.09125409422579027;0.008352184737836416;149.0;0.147606529123843;0.09058306912489687;0.008230622492446405;154.0;0.14704586936193437;0.08846720990295658;0.00785011048647791;154.0;0.14529163838051606;0.08362971006761909;0.0070166787606168145;151.0;0.14197017892058067;0.07807067550670069;0.006114942741066687;153.0;0.138398707195246;0.0740748504484154;0.005505017520189145;154.0;0.13560494020229835;0.07137602967273038;0.0051104890378626654;151.0;0.13395881329681805;0.08623831784482384;0.007458015470379513;151.0;0.14448984427341147;0.06685014834899632;0.004483178898968425;155.0;0.12937204368734556;0.06607954768314384;0.00438025781969204;158.0;0.12892421768741288;0.06644186521063912;0.00442753389481285;155.0;0.12824990994612415;0.06672946147940521;0.004465492456879682;157.0;0.12755041133554734;0.06909490235077986;0.004788962318377627;161.0;0.1304958235821826;0.06993970303898796;0.0049067770505258216;163.0;0.12993298667959904;0.071174125628185;0.0050815056321566595;157.0;0.1315772424414826;0.0661063462871832;0.004384105017423081;156.0;0.12834114722393958
0.06675529531466784;0.004468103564494951;151.0;0.11203482977720133;12.0;0.07705589021735008;0.00594627163876693;159.0;0.11590361031428202;0.08851263019141682;0.007848663663433862;163.0;0.11742671393525812;0.09546185849690451;0.009131370375229497;160.0;0.11912042608988703;0.09793009725591106;0.009610934704499958;162.0;0.11949468341156104;0.09557512176254493;0.009154174407700597;162.0;0.11846267393160956;0.09125719020551243;0.008345833752641174;163.0;0.11629082655320049;0.06765354194226335;0.004590083935695738;152.0;0.11169141129236564;0.08061984773390907;0.0065161714989517205;163.0;0.1107821479241263;0.0772649785761487;0.005986453662557436;164.0;0.10845172695634106;0.07571443264080514;0.0057485669447672255;165.0;0.10719715858503254;0.07235523026621463;0.005251134988226105;163.0;0.10568829229953532;0.0728914373727199;0.005329980081827705;164.0;0.10727871789861118;0.07479654249779699;0.005611776686677575;163.0;0.10776346250892982;0.07510860737823892;0.0056583289601758275;162.0;0.10955212759258333;0.08769026474752459;0.007714867495911259;160.0;0.11328350418061023;0.08984278437850707;0.008097845472398148;142.0;0.13810972189348858;0.08796409070157973;0.007762957220848089;141.0;0.13394628817402396;0.08524616459252415;0.007290642101811354;142.0;0.1307471214711972;0.07967046723626452;0.0063681308149028575;142.0;0.12647514569744944;0.07318996490184039;0.005374280872555406;144.0;0.12251655279345317;0.06807686257083684;0.0046495824511743325;144.0;0.11897603917563669;0.06453819387676095;0.00417873498967315;149.0;0.11740811419034348;0.08248060327686776;0.006824201987965619;147.0;0.1359738011706079;0.05967225988466666;0.0035718756364127658;148.0;0.1136712471041695;0.05951549433168286;0.0035531832472862255;146.0;0.11467792809447883;0.06053817479109666;0.0036766589239716706;146.0;0.11507008689074033;0.06190720446688645;0.0038442179359443507;152.0;0.1174653624907492;0.06408269755303542;0.004118112446894039;161.0;0.1202545358967386;0.06396665150455427;0.004105097358319354;157.0;0.1191139398455769;0.06485785552241706;0.004220289787102552;154.0;0.11882933982237029;0.05909693706713814;0.003503619807630568;148.0;0.11362717303710629
0.060756135471100585;0.0036900286208987353;150.0;0.11460592090438308;12.0;0.07113536318777383;0.00505620701658535;153.0;0.11913325395359893;0.07967731000261256;0.006339916415619218;150.0;0.11958397902681649;0.0846832540033834;0.007168563908916363;146.0;0.12096382358677224;0.08532682306982425;0.007274706989125468;145.0;0.12106960597013255;0.08299937146128171;0.006882456821341211;143.0;0.12001793015830245;0.07826747350434858;0.006123001146583157;143.0;0.1177181862537237;0.06017878825049649;0.0036188852324757414;151.0;0.11262202310289741;0.06827653777718695;0.004658668710021423;145.0;0.11235151736006299;0.06590973055708013;0.004340905099223997;144.0;0.1105194015657199;0.06433097673989417;0.004134347468845498;148.0;0.11005917182512019;0.06217070035550895;0.003863764128143055;150.0;0.10910486750172574;0.06338100109727926;0.004018356263925126;150.0;0.11065560695896656;0.06562482937139034;0.004307930239437126;150.0;0.11336624556711898;0.06440455264833905;0.004146902211120287;152.0;0.11350338435929867;0.16807325519597674;0.02827367026398046;152.0;0.1398085641291149;0.06181080343737693;0.0038047608581206226;134.0;0.11986882360364452;0.06478773382588165;0.004182989390346963;134.0;0.11903874114278984;0.06378987389821324;0.004058607118025137;130.0;0.11777000533678349;0.06040818185361909;0.003644544319461725;132.0;0.11536973221028134;0.0545318759664269;0.002971835838164487;131.0;0.11172618787638677;0.049480628363256306;0.002449030888176728;136.0;0.10899863116573773;0.045972580823363154;0.0021155487412714254;136.0;0.10701977936352969;0.0549303407402785;0.003002842150166015;140.0;0.11981960388172665;0.043366893745665665;0.0018835659577739446;134.0;0.10491957727669238;0.04302417386187923;0.001854236499090601;133.0;0.10622782458105053;0.043187285468568856;0.001868577169229027;138.0;0.10618575435614988;0.04357354790830899;0.001903417547296083;142.0;0.10876078641835529;0.0437768081353493;0.0019211834882639353;150.0;0.1130545502911615;0.04271521103300784;0.0018266491581584378;140.0;0.11174892127465649;0.04262528725087436;0.0018183954152281993;145.0;0.10950313467496998;0.04321480784642836;0.0018696313104259357;133.0;0.10460186666617996
0.0470081301210207;0.002211397532153622;161.0;0.11085412954807396;12.0;0.058907084733286326;0.003471254644516279;166.0;0.11619072454737031;0.06336270200933337;0.004018287037128993;161.0;0.11263937346225716;0.06588705306885122;0.0043488775259215035;157.0;0.11135122155162674;0.06500999215661853;0.004233506379400429;152.0;0.11046987102078808;0.0632036482599175;0.004002556213529085;149.0;0.10882999211711061;0.059136015971827126;0.0035030060948012033;150.0;0.10587214309770505;0.04498008219024204;0.002025405782343788;160.0;0.10595448894737629;0.049905050412053634;0.0024941161031724005;152.0;0.10081972152464741;0.04819320393352506;0.0023272306089549394;154.0;0.10058740114896718;0.04701150536707965;0.002213898709667789;154.0;0.10007869139080816;0.045577595983336876;0.0020815476148440207;158.0;0.09975689622923603;0.04733570169672146;0.0022445432263983977;157.0;0.10083340432917778;0.04976644610768432;0.0024813280808042284;162.0;0.10484933740367057;0.04817749712907233;0.002324995807675511;160.0;0.10458646420670233;1.8152128864582875;3.303612342619771;149.0;0.4312412715518147;0.05309641170397947;0.0028275281754601977;157.0;0.11183248378108247;0.0556013371367398;0.0031007013098940947;164.0;0.11190081833303324;0.05537390878441393;0.0030741852950967475;157.0;0.11084759987955473;0.05280963932613594;0.0027963852093040764;156.0;0.10962865908852042;0.047883877119222755;0.0022986941358123327;155.0;0.10585126798406136;0.04402860641278854;0.001942917026168201;160.0;0.10383505359356889;0.04110016245389327;0.0016930397147387841;157.0;0.10088917565577099;0.04763103131620516;0.0022755665478508373;158.0;0.11028739408846643;0.039312870534756024;0.0015484348373627466;154.0;0.10012804612739218;0.03917550033643855;0.001536884085428421;153.0;0.10000527444872995;0.039196696392651706;0.0015392029916377686;153.0;0.0994986942980109;0.03911886302407916;0.001532425280135026;152.0;0.10065833896921572;0.039667713307095745;0.0015765635758833284;157.0;0.10387473712650326;0.03831762789463911;0.0014725337887637488;150.0;0.1030300594718918;0.0398687086184209;0.0015947035820653216;164.0;0.102692275319156;0.038371991997158204;0.0014750656261974665;155.0;0.09789795930712067
0.043767897641950236;0.0019201254977381519;144.0;0.10021037848735145;12.0;0.05570083711213938;0.0031090425996295086;157.0;0.10557709789094802;0.061927334254852785;0.0038413582212310313;158.0;0.10179079311567031;0.06714642943866209;0.004519172568180816;156.0;0.101303563072424;0.06778908867241677;0.0046057722742543624;153.0;0.10115588758295671;0.06777696639046775;0.004605541823007816;152.0;0.10080396689634279;0.06431836368754151;0.004147569941132655;152.0;0.09862174509607557;0.04164873607509041;0.0017382680649196455;146.0;0.0962840829947754;0.05478899360254251;0.0030092601230698223;152.0;0.0943071947669231;0.05222706003269698;0.0027350067025992708;156.0;0.09360668682009418;0.049870267475913665;0.0024934340434915243;148.0;0.09231738539326387;0.04761975143207599;0.002273576176349872;150.0;0.09201231467335218;0.047737026695586396;0.0022848719837832436;145.0;0.09132800832924545;0.04989846916638191;0.0024969109308741657;148.0;0.09332114062226966;0.05001829082505587;0.0025098133422902314;141.0;0.09501804173206746;2.4524424667159836;6.026390049454724;161.0;0.49498784389437367;0.04545650866698267;0.0020608920657103394;174.0;0.11079946569366866;0.04536471827476679;0.002053833137259786;175.0;0.10899470638582504;0.04473921471102778;0.001998806775023254;174.0;0.10696534852434213;0.042715458730945004;0.0018219935372772384;170.0;0.10526861282102154;0.040486828986531394;0.0016375988718291888;171.0;0.10324998218610923;0.037892993672544034;0.0014358808056364242;175.0;0.10127720466751165;0.036048856049849254;0.0012989135071982466;178.0;0.09878872194921982;0.04224956612335599;0.0017798961673523713;169.0;0.11048316848026847;0.03573411356364744;0.0012772770574544495;173.0;0.09783179192708398;0.0366462956440962;0.0013446050500773928;171.0;0.09829009877986968;0.036709320406012574;0.0013498182222882753;163.0;0.09756977689891987;0.03640591174455806;0.0013278988651449556;160.0;0.0979858188150282;0.0373722133638339;0.0013983187761201325;163.0;0.10032740418629175;0.03795815790526583;0.001441808839489504;161.0;0.09944473090732615;0.03681908379266785;0.0013559766109254377;174.0;0.09883423231427382;0.03401746847180512;0.0011574896482743464;173.0;0.09543053977597928
0.040022060165401226;0.0015979619848699273;122.0;0.09884437456359949;12.0;0.04926046686758064;0.0024162645996385445;127.0;0.10086108372069981;0.056590580919051336;0.0031897351672995644;131.0;0.09975997804429398;0.061598355712452195;0.0037796028140158655;129.0;0.0999596863975655;0.06307449351662665;0.003960987806423013;130.0;0.10169208611712496;0.06228860562826228;0.0038657870921727532;130.0;0.10133071192509831;0.05958346262619808;0.003538695949094843;129.0;0.0998974253307645;0.03773230194371324;0.001419695374050273;126.0;0.09569388991479451;0.05024665905437352;0.0025144806130347713;133.0;0.09613655746823524;0.04752313987564415;0.002248325075405257;132.0;0.09451162268530182;0.04519998229849349;0.00203529676109119;131.0;0.09308160322687062;0.04261820317656464;0.001807617312778835;129.0;0.09222032384458226;0.04148062368696421;0.001712927185295457;131.0;0.09093825039477708;0.04264171235462021;0.0018121960012202807;128.0;0.09152393538828237;0.04313623579842129;0.001852898283020914;128.0;0.0928878801349897;1.7223714753660335;2.9722548571657685;144.0;0.3077917696891684;0.04777800256709863;0.002289725175255702;170.0;0.11003501451923885;0.04784514922308839;0.0022947677685640007;165.0;0.10796776438943449;0.04668036156932843;0.0021818471413313917;163.0;0.1067586215098276;0.04513383680385365;0.002039974484749805;164.0;0.1047003222981309;0.0429453023282885;0.0018465987849151488;166.0;0.10277599483801653;0.04058277189756855;0.0016493973999035419;166.0;0.10096213075648286;0.03919730533771627;0.0015373075399876374;168.0;0.09984543431387438;0.045998752975306784;0.002122037605034507;166.0;0.10791533119413617;0.0378485448331099;0.0014337821616697613;167.0;0.09572260275868076;0.0379814771808275;0.0014435000140751695;165.0;0.09659970151278931;0.037469735676699784;0.0014054006679959314;163.0;0.09569880607350026;0.03720313685925237;0.0013863682194579113;160.0;0.09687452102455478;0.03727772745765076;0.0013929777815903112;155.0;0.10054763995090328;0.0382786852527115;0.0014691848456364917;161.0;0.09936295529513664;0.03936409586115959;0.0015535654484512477;162.0;0.09872645054292632;0.03694164373703129;0.0013659826142813811;164.0;0.09435293367462944
0.03263718717198687;0.0010675063620627669;127.0;0.09378907149669453;12.0;0.03640977557840054;0.0013270794093181509;125.0;0.09547722938709825;0.04024831861510818;0.0016217972604185924;121.0;0.09378943796733633;0.04240226166790965;0.0017997528102934408;123.0;0.09305008387455355;0.044032943742267606;0.0019394341130920835;122.0;0.09437901779070862;0.042957687188550475;0.0018472207247341459;124.0;0.09337253374864829;0.04195357253851199;0.0017622671910613146;123.0;0.0920204417377323;0.03102616432027243;0.0009649717982616324;130.0;0.09100817999320236;0.03663575285520075;0.0013446281518958156;134.0;0.08902473500004589;0.035540715996777446;0.0012654395004464904;132.0;0.08868763035225416;0.03417153493028317;0.001169782784737335;131.0;0.0868061932901893;0.03269367367691528;0.00107132015466294;128.0;0.0867198401969164;0.031651891305696546;0.0010041263128314107;131.0;0.08579296824487877;0.03095768326586281;0.0009605494235343377;132.0;0.08620630504163013;0.03136987049779348;0.0009868338997628004;130.0;0.0865227397916646;0.5685020383118042;0.3199821240725669;171.0;0.19214485040846355;0.04689417182044968;0.0022042957784367745;146.0;0.10736052685077299;0.048825443012737134;0.0023896810278961223;133.0;0.10416146385829833;0.04823580489598998;0.0023321432222162685;139.0;0.10369443693258122;0.046723872884618545;0.0021872433429076733;146.0;0.10188173915054793;0.043301991441827656;0.0018787613074936072;147.0;0.09978262637255794;0.040826325874591146;0.0016702426899132935;149.0;0.09759171816623285;0.03885458015123355;0.0015127319425056178;146.0;0.09719306289080984;0.04339172273909332;0.0018883429001901114;148.0;0.10402002983580992;0.03592286899362146;0.001293338414303786;153.0;0.09308821035976005;0.035588488533971;0.0012696225755748029;152.0;0.09503130903166032;0.0357431373117703;0.0012813083333028772;161.0;0.09364966254886486;0.036667398056081525;0.001348621299333164;167.0;0.09640960733041114;0.0369375145874643;0.0013682771480638754;162.0;0.09945065920925054;0.036491177081006076;0.0013354574743599248;166.0;0.09794365851255048;0.038079412624619974;0.0014544624322391576;157.0;0.09787301469735545;0.03569902703890219;0.001277340137888451;149.0;0.09231570299438294
0.037167809760067706;0.0013816664829266157;144.0;0.09044402628919553;12.0;0.045868020201516535;0.0021015413595025815;141.0;0.09668285780411737;0.050797905993665494;0.002576374868690501;131.0;0.09840638207666218;0.05300193725010633;0.0028033761295603705;135.0;0.09831364119968951;0.05332442629174091;0.002839176093349989;136.0;0.09733929334379425;0.0513311814034205;0.002630808007100834;135.0;0.09540365862024122;0.0496614608846145;0.00246332384437297;137.0;0.09347054848996988;0.03547025866365372;0.0012579648186427624;142.0;0.08824812714084909;0.04234331656424424;0.0017919082821520936;144.0;0.08917701048813598;0.04119697823901802;0.0016959876382919353;141.0;0.08927464098077667;0.039246321041489264;0.0015399294996805107;136.0;0.08750939515893269;0.03821137478335933;0.0014589514681700763;135.0;0.08696234380618142;0.03608513660305841;0.001300974548648945;133.0;0.08630896432443962;0.03544677544939046;0.0012556249497955325;135.0;0.0863882199333439;0.03696672327958245;0.0013645005714785544;139.0;0.08784344331604778;0.22220480058746567;0.04868611576374286;170.0;0.14424633686995483;0.04538137014907938;0.0020614121604201866;142.0;0.10624446023262182;0.04632507309757138;0.002147760565165206;140.0;0.10166964026914141;0.045658037125949416;0.0020849187841711797;146.0;0.0996698453640691;0.044096500419679066;0.0019438590150156277;152.0;0.09749573208107806;0.040925264817212224;0.0016747605191751635;154.0;0.09595551657073413;0.03881215910517189;0.001506232397198205;159.0;0.0939989622226462;0.03641855665913117;0.001325804241155432;157.0;0.09305414061722928;0.041011734807499436;0.001683120272297069;150.0;0.10435767678433072;0.034094304689619416;0.0011614165900291859;160.0;0.08979761138112327;0.03368025019059256;0.0011323977050179666;158.0;0.09138865998989085;0.033924821143061154;0.0011492146170844202;166.0;0.09141535205054589;0.034911722991816795;0.0012175739132732283;173.0;0.09439010568369899;0.03588715591085003;0.001285907247532878;173.0;0.09757609798932232;0.034797349790778274;0.001207919532632226;168.0;0.09464203402353329;0.03364192941825926;0.001127057413455866;164.0;0.09276244330499442;0.033176211374729134;0.0010994788637960474;156.0;0.08843890344598007
0.030418955851697453;0.0009283337517825717;148.0;0.07882302481240969;12.0;0.03790776003286707;0.0014414490788729891;159.0;0.08447350284126517;0.04146849616403937;0.0017252243191907513;150.0;0.08508374331045084;0.043428817169003195;0.0018921599999234433;156.0;0.08558542382758935;0.0434328967889858;0.001892402535860775;165.0;0.08354145870717393;0.041527949858144536;0.0017299841158860047;157.0;0.08274969861125629;0.040170977829050804;0.0016188885563610512;157.0;0.08102669270874858;0.02858349188524669;0.0008196774356088284;145.0;0.0768934913650073;0.033491737002041354;0.0011253586199556592;152.0;0.07579889268160697;0.032547988832095684;0.0010628319814970787;148.0;0.07563047592060611;0.031211712523132772;0.0009773534505428862;145.0;0.07532515624282275;0.030788367901640006;0.0009510206120477797;150.0;0.07396171882845248;0.02946018994000192;0.0008707212285326896;153.0;0.07471997832369932;0.02975615834265134;0.0008883146934832482;145.0;0.07587031115778445;0.031164652189379593;0.0009744089237440327;157.0;0.07608056665997567;0.11693633888304684;0.013555663705602822;142.0;0.12340507439321975;0.043178742564381895;0.0018626832718191216;157.0;0.10316456496105489;0.044622991834387796;0.001987282921847774;164.0;0.10125504082250075;0.045022441977893145;0.0020208681487478867;159.0;0.10047877106495925;0.04361637603827351;0.001898421609847999;162.0;0.09798298247837925;0.04200468930824145;0.0017601446182300613;164.0;0.0971698642112434;0.04068914058241602;0.001651448678779155;164.0;0.09565467759314607;0.03909023626329453;0.0015231390663917599;164.0;0.09450363202323667;0.04071473143101771;0.0016567813191741465;154.0;0.09973740109139027;0.03709785980474036;0.001372970708460514;161.0;0.0910896931026827;0.03660850136703533;0.0013386766284745417;164.0;0.09172063218669999;0.03628292930796215;0.001316193369992254;170.0;0.09201923558356025;0.034999517263032145;0.0012255449509162516;172.0;0.0908068776468295;0.03548307222715136;0.0012601445129209437;168.0;0.09139422267265504;0.03626817759895596;0.0013171373670269732;165.0;0.09053424002892708;0.036996111689536336;0.0013714854554158096;167.0;0.08999632359553959;0.03564179702899028;0.0012668493098811182;162.0;0.08755236287100414
0.009563637864641927;9.073536548146567e-05;145.0;0.054022538717239485;12.0;0.011956148634960716;0.00014123983409914268;158.0;0.055502302579259186;0.012478081952781078;0.00015385120876516484;150.0;0.0550850557927871;0.013751883909512708;0.00018722847369213313;157.0;0.056351073182855954;0.01431138974865557;0.00020359821434062615;166.0;0.056128978031310985;0.013636096618900459;0.00018434700286874755;163.0;0.05669773786606571;0.013182199084744458;0.00017230601206835052;166.0;0.05601261612505177;0.009318105339420358;8.6103334785826e-05;136.0;0.05409273150742194;0.010826276406590373;0.00011635760525413506;151.0;0.054202458337810025;0.010314705227210251;0.00010546183261507416;143.0;0.05376084463230764;0.010651347679507461;0.00011267800447656515;147.0;0.055626030721478155;0.010463297396682144;0.00010850325344543463;150.0;0.0532198714092759;0.01043925196620916;0.00010792483162573857;153.0;0.054788233911299646;0.011357606542713351;0.000127606199210145;147.0;0.05578892155812489;0.011208659082298986;0.00012420856200998198;147.0;0.054310426755006316;0.0834505643666255;0.006986600441596427;167.0;0.10950341213527856;0.07169951927199512;0.005131725855333526;162.0;0.12093919294969543;0.07607597348720259;0.0057848913890295355;161.0;0.12187982562103232;0.07821951971749902;0.006119734600241585;157.0;0.12239823684434403;0.07615556083191419;0.005803558587148941;155.0;0.12040996863910557;0.07214184309821214;0.005207751097358916;154.0;0.11833819259428936;0.06794476126790362;0.004618845181027274;156.0;0.11662529121796332;0.06538517630447689;0.004277395729077676;154.0;0.11456748287365418;0.06806892023893095;0.004624117889028902;154.0;0.11881808391163269;0.06180328346899369;0.0038214715986150116;151.0;0.11219945473118116;0.06070690992886644;0.0036853509143082025;158.0;0.11259517557013476;0.0603198788761647;0.0036362076007804022;162.0;0.11210080361368656;0.05795597074986119;0.0033581819989006102;161.0;0.11136174337907469;0.057170320685379056;0.0032683748692316815;161.0;0.11079817273212174;0.05881533414889181;0.00345888113290597;158.0;0.11245284859655355;0.060470491126187444;0.003654520152233616;155.0;0.11318374530982993;0.0614409315785313;0.003775069392255762;158.0;0.1092025532487919
0.027055934016508194;0.0007341751279909565;152.0;0.07500958290103293;12.0;0.03323065725708742;0.0011076921100920812;154.0;0.07938631365575124;0.03875669808805996;0.0015065394325699793;153.0;0.08197301155063096;0.04218538409095104;0.0017850094603686232;155.0;0.08322878479849447;0.04433217377836726;0.0019715130560966822;160.0;0.08465674978523434;0.04380811278916508;0.0019252352432037934;161.0;0.08417615005566167;0.04157421717857873;0.001733841746535857;167.0;0.083161744360306;0.02674993566659635;0.0007177333535109329;141.0;0.07479863590478551;0.03537150135818301;0.0012550104556774836;156.0;0.07874197066284284;0.03400326314838422;0.001159713570181761;148.0;0.07683748735529776;0.031729522826676584;0.0010095834269958984;154.0;0.0770467320881002;0.029471810608914104;0.0008711402824368528;148.0;0.07492950713614985;0.02497312288979921;0.0006251847185280227;147.0;0.07391867108560977;0.023869637881157146;0.000570635452980601;153.0;0.07388723003425082;0.024106073983281996;0.0005824366833026807;147.0;0.07464481254358801;0.04594691814806006;0.002111842438967745;171.0;0.10376110752296275;0.09652176703196155;0.009347104285680882;148.0;0.1388629268965511;0.10227588909709276;0.010494830148722732;146.0;0.13963989538326974;0.10279484588599207;0.010601096225026828;143.0;0.13809317939021237;0.09862332303753378;0.00975867621172751;138.0;0.1348528714292457;0.09217377727731661;0.008523852362970714;137.0;0.1309545863173205;0.08538959622478653;0.0073146207236496515;139.0;0.12813078818732096;0.08153710402777625;0.006669161370949824;136.0;0.12496212616806986;0.09094299100038175;0.00829767598074203;147.0;0.13854989370379223;0.07598384732885982;0.0057913479061333616;140.0;0.12154589757023493;0.07446498423708987;0.005562544952016305;144.0;0.1215932385295996;0.07335009354229502;0.005397524013110302;145.0;0.12174973065771555;0.07058050083055677;0.004996879362014532;143.0;0.12257067854174537;0.07033007967297093;0.0049617827454048165;154.0;0.12462130279903195;0.07290543104698637;0.005332690629617521;152.0;0.1262912602672096;0.07461866959691087;0.005586341602421514;144.0;0.1271636051282273;0.07669525630591398;0.0059007560376096585;142.0;0.12058662424730521
0.0410361332008677;0.001680237543107764;158.0;0.10267346836364113;12.0;0.049617172450718935;0.002452216165043609;164.0;0.10802335427567464;0.05396015392225395;0.0029044431499129827;164.0;0.10851347750587144;0.0550475668065123;0.003025361377100812;161.0;0.10783601208642982;0.05568091258770475;0.0030955982032789334;169.0;0.1075006085839055;0.054713122789752176;0.00298800876742027;170.0;0.10662998463847462;0.051681932515657454;0.002667290068364892;167.0;0.10622098824458633;0.03954371340064137;0.0015589403286362245;161.0;0.10018404150887286;0.04438909861376646;0.0019664580685805817;166.0;0.09843256732520352;0.04236264340071601;0.001790038937515994;161.0;0.09695595360782479;0.04065807629921553;0.001648615102796084;163.0;0.09555977310092809;0.03912734178171247;0.0015246439584130481;160.0;0.09535909736713322;0.03679699061233204;0.001346753995575529;157.0;0.09392025425403927;0.036755930614011105;0.0013433995330043376;165.0;0.09506129945720847;0.03632568395636301;0.0013132291494946239;164.0;0.09638432662496457;0.11403566613092794;0.012753593536027459;160.0;0.13400145310243794;0.09059176336477347;0.008219651714691963;128.0;0.14340595033382772;0.09556988881834279;0.009150127817705961;127.0;0.1431426099744959;0.09491946644252112;0.009026262199006858;127.0;0.14007407860887716;0.0899957098542637;0.008118823299031951;124.0;0.13536510253575226;0.08364017396834655;0.00701173887377882;127.0;0.13158667924770281;0.07730703070398755;0.005989956799435176;129.0;0.12752838192917312;0.07324880977609516;0.005378131170469135;127.0;0.12470702855578909;0.08557826903169634;0.0073348381767343205;126.0;0.1433357944448492;0.06727474302033487;0.004536393336894442;136.0;0.12140874570743553;0.06620755019557109;0.004393035304917125;138.0;0.12092300673649187;0.06434010070935618;0.0041478400088939505;140.0;0.12131768705274766;0.06267084704960091;0.003932870065694214;140.0;0.12094399580634957;0.06331147203575054;0.004013275721238774;144.0;0.12266142191423801;0.06455819172743228;0.004175316461788944;140.0;0.12374217050796014;0.06575070737883289;0.004331740296748593;136.0;0.12422585713856785;0.06835356854354102;0.004682842653433607;134.0;0.12149596727233845
0.046483328229936026;0.00216744908402396;156.0;0.10894769614786666;12.0;0.05556110285030829;0.0030970172194159794;157.0;0.1137843540531083;0.05810928414058475;0.0033877048086255568;154.0;0.11199815089886277;0.05713676654436843;0.003275135245864559;158.0;0.11015723503932806;0.056097757428140736;0.003156907810503297;167.0;0.10933369826911514;0.05421097671394666;0.0029476300956214965;169.0;0.10700703394795467;0.0510414114527662;0.002613516442265341;163.0;0.10661175295587699;0.04470517270258768;0.0020050752985691623;157.0;0.10554508124630255;0.04573739298436693;0.0020987426231732997;163.0;0.1008182088538195;0.04385969424470032;0.0019299348479253845;161.0;0.09989538790676021;0.04359132760693512;0.0019064282268271143;160.0;0.09944786483578813;0.04308473903040572;0.00186230733306113;159.0;0.0996213740627237;0.04405022963995262;0.0019466537326377693;160.0;0.10010942070825939;0.045076445328624724;0.002038179152839273;163.0;0.10210514448238699;0.044261238558195595;0.0019650901687500175;166.0;0.10276273790871493;0.620137197269402;0.3847399896347232;156.0;0.2189791980900208;0.0678272936947012;0.004615014785542551;154.0;0.13647894729631704;0.06959004235534753;0.004857452981653374;151.0;0.13412224749523288;0.06882769837340295;0.004751593210723414;147.0;0.13167473788658746;0.06486271829661161;0.004220318964230528;145.0;0.1278474488161313;0.06012621043913093;0.0036259957980818627;146.0;0.12472220575633836;0.056115571485103044;0.0031584537288943614;147.0;0.12167808684473251;0.052755760818217964;0.002792023411394139;144.0;0.11874223757890796;0.06482289369353082;0.004214247732939673;146.0;0.1345435025473644;0.04930624313348909;0.0024388199791006196;148.0;0.11623755962461345;0.0484348004416398;0.002353437495653822;147.0;0.11503959410041989;0.046940824804366586;0.0022105879152857057;148.0;0.11489252687952867;0.047138611024174853;0.002229266812436341;149.0;0.11540985731755635;0.047882764080926024;0.002300226568519468;147.0;0.11702094430925014;0.046079864103786575;0.002129637623844681;143.0;0.11637280503750196;0.0462045852331417;0.002141451101591104;145.0;0.11593629340631996;0.04985493230133878;0.0024933687465575837;147.0;0.11598403546092832
0.05190410341529232;0.0026996457261678855;146.0;0.11152282330970201;12.0;0.0570414509639713;0.003256524460096485;147.0;0.114102521071058;0.057714619726390415;0.0033346377344950786;141.0;0.11218260159999298;0.0574293662474328;0.0033015817164937403;147.0;0.11047418181453042;0.05711161986190667;0.0032661591912326706;149.0;0.10999522707331806;0.055611925325804765;0.003098927906132138;148.0;0.10672216957993733;0.052354786912627134;0.002745920726729808;147.0;0.10532802091527853;0.045857900277298705;0.002105174321763965;134.0;0.10635961300140702;0.04672514760283426;0.0021868960484921264;142.0;0.1007259792021036;0.04490713044930482;0.002020469020436592;149.0;0.09921027420419884;0.04340069746781406;0.0018862041395001986;144.0;0.09833658698786261;0.04283064950123288;0.00183688767845882;142.0;0.09826724609802241;0.042629905119572487;0.001819420454089465;145.0;0.09875038279835838;0.042913605542516095;0.0018436531070500093;142.0;0.09934427375153178;0.04331744587794498;0.0018787860307474026;146.0;0.09952277150246437;0.6825961040565386;0.4668029395328604;149.0;0.2199501908393714;0.05076656754668848;0.002584863850704175;156.0;0.11864923626285039;0.04891032835817517;0.0023993137134493913;153.0;0.11545234634007603;0.04716281207527498;0.00223103315229507;148.0;0.11441472748510342;0.042993916819861505;0.0018543104562105514;146.0;0.1115160403196004;0.039590808010461304;0.001572468581843905;144.0;0.10801570352872414;0.03686605581185652;0.0013635316832865882;142.0;0.10583959519144216;0.034579168037964056;0.0011995235835790168;143.0;0.10296674318752179;0.04697497687575115;0.002213108490908503;157.0;0.1169018710368156;0.03230044511221978;0.0010466966615711875;148.0;0.09918716619456464;0.031362255159433326;0.00098677001394062;146.0;0.09902728237862819;0.03118125558648463;0.0009752701607861975;142.0;0.09867742908915601;0.03290710666295559;0.001085706700941355;147.0;0.1006860426244077;0.03409348572090594;0.0011649263415676422;148.0;0.1035268846857216;0.03206075044240398;0.00103064271911592;145.0;0.10142635197490697;0.03201713698399724;0.0010278072291751159;152.0;0.0992167534488159;0.0324472774388037;0.001056223499385064;147.0;0.09882416347184585
0.04424758548625479;0.0019641831804980718;125.0;0.10702520092564936;12.0;0.04661715182355344;0.0021800818794149375;129.0;0.10902981303014636;0.045896709053795094;0.0021117347432043493;129.0;0.10466639100130246;0.045709642531511566;0.0020920908244724252;131.0;0.10258481848265998;0.0464554033740698;0.0021610190893745305;131.0;0.10081640365004543;0.045751638077957416;0.00209575278177844;131.0;0.0988952163633097;0.043670371486454106;0.0019094818665705033;133.0;0.0973264118444905;0.0369936416230989;0.0013723273157309056;118.0;0.10123603835855054;0.03810959975176523;0.0014537928879946554;125.0;0.09305794349887915;0.03600224857265518;0.001297707626936562;131.0;0.0919985824502386;0.034047417386775344;0.0011610917281999723;127.0;0.09036960295536087;0.03352583515333306;0.0011255154698444785;124.0;0.09010468512701753;0.032950711836769044;0.0010867730757890236;124.0;0.09007859407753872;0.032554142950651004;0.0010615243119038084;124.0;0.08913916478336108;0.033551875740295715;0.0011284820470551034;128.0;0.08963354560306674;0.31450545885119685;0.09819259188985409;155.0;0.13611714978005332;0.04332790581646037;0.0018799708289720179;144.0;0.11193367144445927;0.039703049244946775;0.0015779554059509127;147.0;0.10789783082335774;0.03745325295540776;0.0014046193356836683;150.0;0.10497810475884858;0.03429096312799769;0.0011767298796846492;144.0;0.10231483304161706;0.0317230151624903;0.0010078772365137573;149.0;0.09874538349768115;0.030350734510011388;0.0009222920893020173;149.0;0.0973243207233857;0.02844963685355516;0.0008105896418733228;148.0;0.09512526749694727;0.03957145951726475;0.0015690985789162703;152.0;0.11160258198801744;0.02678294734381584;0.0007181811350528275;151.0;0.09139010698655539;0.02674847387901819;0.0007162174374157367;147.0;0.09192359785735237;0.026346012240483992;0.0006946757493931259;144.0;0.09093487757321266;0.027965837827185376;0.000783281258151394;161.0;0.0933573625646681;0.027971183459117303;0.0007837360488539191;163.0;0.09557076040515707;0.026397959948970078;0.0006982590208624017;148.0;0.09452045974424085;0.025840006641952615;0.000669137101380196;151.0;0.09276149739349084;0.026410343998664893;0.0006985483272289443;151.0;0.09090079856300481
0.03129852596139657;0.000981878023074001;128.0;0.09016867141913301;12.0;0.03671380240739236;0.0013518844262788272;125.0;0.09443245381717598;0.03908212237440546;0.0015323524659563413;132.0;0.09119191709610971;0.04090197891313199;0.0016783763215050397;137.0;0.09055794549247535;0.042211962539789934;0.0017876299733849868;140.0;0.08887508039941991;0.04148615768983491;0.001726569076992285;138.0;0.08862627180968;0.040144741609767005;0.0016167566066684538;138.0;0.08708677572421332;0.029286639455437496;0.0008601101808440862;130.0;0.08771180945335735;0.035340643656862;0.0012529118691293017;131.0;0.08312271279382243;0.0332874278235571;0.0011114137706522017;133.0;0.08240514043153127;0.031922865972990815;0.001022377050566194;132.0;0.08089150622636343;0.030770829157556797;0.0009497864091043059;127.0;0.08040926599917525;0.030154656267662668;0.0009120941849129337;126.0;0.0798979067499763;0.028832523325431268;0.0008340307345651405;126.0;0.07931526714906456;0.028425018623331695;0.0008106356522038884;129.0;0.0801472613867087;0.09147221679061082;0.008358641005841673;152.0;0.10522073783251307;0.03602307327356893;0.0013017585967953936;165.0;0.1055979741096224;0.03322281199020878;0.0011073534274507145;167.0;0.10034028475185677;0.031051865742970208;0.0009674148448634451;172.0;0.09701469124788996;0.028714064622953634;0.0008272408352587127;167.0;0.0944946648270878;0.026519820004787982;0.0007056434218023377;164.0;0.09172591011670189;0.02572760620948406;0.0006641115937343886;168.0;0.09081481811619115;0.02378109908267325;0.000567421890612708;165.0;0.0895246646332254;0.03251640639024353;0.0010607315298215379;159.0;0.1010074622925521;0.023131559359400804;0.0005366756146486491;170.0;0.08584335786942571;0.023379055432548725;0.000548258526002105;170.0;0.08653471538447616;0.02286325286163809;0.0005243964091034263;160.0;0.08478856715444441;0.02382156723743956;0.0005693392060987095;166.0;0.08813399254475363;0.023755914430096715;0.000566212078320307;165.0;0.09028403456573764;0.02362624678942329;0.0005600775214337208;151.0;0.0900171128504056;0.023372202203720365;0.0005479128477271647;159.0;0.09080552374723029;0.022115735255797308;0.0004907169935864359;168.0;0.08465560915517285
0.02973464419482944;0.0008869142719129665;141.0;0.08265602967674285;12.0;0.035087582806338516;0.0012346063030466037;138.0;0.08667889862971288;0.03832299184162351;0.0014727526603577434;136.0;0.08579911267903513;0.04055773519160798;0.0016496776995366263;144.0;0.08543378906094391;0.04070132781292889;0.001660481249593048;146.0;0.08501021951376607;0.04014005010275709;0.0016152917903268255;145.0;0.08461086010410696;0.0384479108364811;0.0014817752397401523;146.0;0.08308958613462024;0.02848385030489497;0.0008137421743065055;140.0;0.08062455669817176;0.033800716004775806;0.0011449831875886877;136.0;0.07816923796339616;0.03266446421644504;0.0010692683470690883;137.0;0.07799323576100634;0.03171478055571962;0.0010083570247186814;138.0;0.07690261888742383;0.030587114401554642;0.0009372520046259081;135.0;0.07648284991837885;0.02958809051615456;0.0008763325250228592;144.0;0.07611788691356007;0.029068953764418325;0.0008458197205462028;142.0;0.07674283541013527;0.027907628244722656;0.0007803879936620235;141.0;0.07798701653590101;0.04290966446787996;0.0018470753923224466;140.0;0.09926537756216386;0.04182114591704341;0.0017532150132861552;155.0;0.10361556682018287;0.039245945948952185;0.0015431269762817552;155.0;0.09721314988947839;0.03657669248215561;0.0013399766588572798;159.0;0.09437488430300153;0.033849110591296076;0.00114741427640153;156.0;0.09176029242224347;0.031042568109923892;0.0009649384848216533;149.0;0.08809661503507052;0.028523043195780712;0.0008138361910620174;158.0;0.08722229856456439;0.02656904605542655;0.0007062133249292923;159.0;0.08512237156328471;0.04013751680350745;0.0016150734432005265;146.0;0.09999823233184398;0.024569394549141175;0.0006034253017747694;161.0;0.08315524746473313;0.02548767581457558;0.0006498836045563779;164.0;0.08571299697997563;0.025979006066056822;0.0006752891712067571;149.0;0.08482909393031828;0.02711620197998381;0.0007363003923433084;149.0;0.08787063471946387;0.029462948936233236;0.0008697688191586217;154.0;0.09144730123669306;0.02882855869067558;0.0008327672229517441;151.0;0.08986215941693612;0.0268970452911215;0.0007247186179782547;159.0;0.08901639075636292;0.02414719527513678;0.0005836865332321577;159.0;0.08205984179234763
0.02427058509798382;0.0005906168333233776;152.0;0.08407325980884776;12.0;0.02875344146678558;0.0008285785076034073;141.0;0.08803347944570811;0.03090570424564059;0.0009575014058969952;140.0;0.08568680538547646;0.032906286339135754;0.0010851521624708072;139.0;0.08510372905714567;0.032958366404656506;0.0010881021925155227;138.0;0.0842618908832619;0.03303685219312079;0.0010937869153293492;144.0;0.08368024817718189;0.0312540872105211;0.0009789147159724584;148.0;0.08205540871897987;0.023722200260635103;0.0005641976564826024;146.0;0.08097313171016353;0.027317224244665345;0.000748048246424691;134.0;0.07586667640740632;0.027155477506718474;0.0007392772587323024;138.0;0.07529099563081865;0.026382068331350084;0.0006978472047089295;146.0;0.07534118713318849;0.02585828927533972;0.0006706005594708206;138.0;0.07434728712710956;0.02493009978270507;0.0006230814796500209;149.0;0.07406421069854158;0.02567907330142603;0.0006613960391104832;150.0;0.07672427999433189;0.02440246186982333;0.0005972960467406688;145.0;0.07640101184711358;0.03246144194061789;0.0010567270267704558;153.0;0.10027654025632186;0.04252559276906839;0.0018128561990258516;144.0;0.11072550141163884;0.0408848992033455;0.001674939085560121;149.0;0.10532428207238675;0.039539848148526624;0.0015668102944608369;149.0;0.10282378624092722;0.03728270436951355;0.0013923024775626463;151.0;0.10018851050176404;0.03469455236773948;0.0012067369116809806;146.0;0.09687507498535078;0.03236763690550923;0.0010500509873046598;154.0;0.09600502589458446;0.030748301765041283;0.0009479824070392791;150.0;0.0936365489842658;0.04203261033374838;0.0017707060001523652;139.0;0.11067137121460303;0.028246434956963214;0.0008002861749666672;151.0;0.09201500820211686;0.02857860102511331;0.0008193750645892956;148.0;0.09482653047202595;0.028296538497567324;0.0008032630557742543;138.0;0.09262460434574875;0.028548387092901934;0.0008176774905798008;145.0;0.09331732744421534;0.030432980482955847;0.0009291603406788343;143.0;0.09593343663278715;0.029167757151023092;0.0008535135232493389;147.0;0.09452099960834667;0.027915934082108317;0.0007808080952849781;145.0;0.09439280470602436;0.028101734346613078;0.0007920424760284621;143.0;0.091357064028949
0.05525040239657341;0.003061741731166742;159.0;0.10289065833995618;12.0;0.06222529295611621;0.003881594219555002;149.0;0.10730721522305468;0.05644816073743029;0.003194028732611554;156.0;0.10245479908845094;0.053106852979033385;0.0028265241049607462;147.0;0.10127969709850343;0.0511665227713527;0.0026232415620717447;146.0;0.09963162581803588;0.04948851540857747;0.0024544745119372;151.0;0.09876746761432652;0.04645457265454241;0.0021623172288385093;153.0;0.09658600110727494;0.0492887921419011;0.0024361616555699573;156.0;0.0967802567390653;0.03890265336382686;0.0015172515882747235;146.0;0.08996959216383427;0.03770323688516902;0.001424742174790186;153.0;0.08858514218684864;0.03643163829133207;0.0013309482873561456;158.0;0.08773143085658827;0.034999854084686345;0.0012277748670847849;151.0;0.08746288341309681;0.034462055092542396;0.0011903546548853857;150.0;0.08726964441462613;0.03512202172254414;0.0012359660250573906;148.0;0.09015027711556993;0.03427662765827017;0.0011781668851377277;154.0;0.08878105580129891;0.040616970899912654;0.0016544468303472724;144.0;0.10353723486376931;0.06471181695895423;0.00420129137915655;149.0;0.12623197885138843;0.0637716854318276;0.004080198638661353;149.0;0.12370235929429346;0.06268486708107569;0.003942296009951241;148.0;0.12265620903722592;0.059409053611834815;0.0035410347051172976;155.0;0.12044364180952104;0.054434329655874455;0.002972657624726244;150.0;0.1184283380826223;0.05144626901361878;0.002655279156880904;154.0;0.1167864654880373;0.04875082262866807;0.0023843461888232607;151.0;0.11492609076682306;0.06653481852474961;0.004441319502735388;138.0;0.1271150389036317;0.04420725132277303;0.0019606686418503693;157.0;0.11192651031709369;0.04307419826165169;0.0018614567976114804;153.0;0.11202561818074609;0.041976779198764344;0.0017678257675756456;146.0;0.10926040567209434;0.041264296459500534;0.0017081421255171936;151.0;0.10884352583469967;0.04215075884495545;0.001782478521472501;145.0;0.11044811804512904;0.043315286309103564;0.0018824224093776894;146.0;0.11006585514806481;0.04231444116148175;0.0017958671509459366;140.0;0.10792438240589045;0.04489271436330756;0.002021954006609105;148.0;0.11065254053338558
0.07032661895701313;0.004961983847081056;171.0;0.11647247281634276;12.0;0.07581185062162384;0.005766007048259773;163.0;0.11740088470524479;0.06990886027961138;0.004901991801381172;155.0;0.11047357621225025;0.06651189078548832;0.004435151458907862;149.0;0.10951609263181056;0.06332068857715129;0.004017459896712654;145.0;0.1070451254418054;0.06132339295414094;0.003767701507599476;144.0;0.10599807728002192;0.05742309690433267;0.0033040142233653168;145.0;0.10349291881481786;0.06492228437540333;0.004228690864945091;164.0;0.10896474936460064;0.04859886617230739;0.002366764132107736;151.0;0.10019343202032473;0.04713359084763645;0.00222633692200001;156.0;0.0996481695940762;0.045290761644168114;0.0020552033859305148;154.0;0.09771581345030732;0.04387013476210517;0.001928589541319182;156.0;0.09782892890880229;0.04428331223261472;0.001965258631521308;154.0;0.09891183665327416;0.04634504287019872;0.002152489489168784;152.0;0.10186085037602546;0.04543852961468426;0.0020689984878328616;164.0;0.10132292602686001;0.17042497120467776;0.02904598908954273;145.0;0.13940391766105428;0.09252160882087648;0.008587915313282646;142.0;0.14184723866417476;0.09414611438404619;0.008891823447514765;142.0;0.13936643021203216;0.09261208777529;0.008602869207274018;139.0;0.13778811843808458;0.08830825411866468;0.007821456940691226;136.0;0.13546464687460447;0.08098624757538554;0.006578677489862688;139.0;0.1320038457423136;0.07555808882397226;0.005726190003968703;139.0;0.1299519394650031;0.0713843048450969;0.005111262290280311;140.0;0.12742398499160407;0.09584199427632357;0.009214213701586631;139.0;0.14474269830777664;0.06350115772864476;0.004045028940950781;142.0;0.12366691663176324;0.06239641669754002;0.003905266680687139;143.0;0.12292692243755544;0.0615812025699843;0.0038041132133104258;144.0;0.12267581881742672;0.062424432220985926;0.003909138343088633;148.0;0.12325416485754365;0.06574156043308156;0.004335858757140331;151.0;0.12534378683340783;0.06670424951085357;0.00446272664404396;145.0;0.12490503415450925;0.0660372633678405;0.004372778847456236;137.0;0.1227527885317991;0.0629339105797273;0.003972676464397494;141.0;0.12150829218302178
0.05616126817731699;0.003161982432604201;173.0;0.11764954409833092;12.0;0.057655035502396895;0.003329813617069321;158.0;0.11545648175682571;0.056557197579822666;0.0032021366947777717;142.0;0.10841880254014138;0.056748128931937813;0.0032219216354429114;135.0;0.107639873052771;0.05541152239437462;0.0030718886316787914;125.0;0.10495348985828382;0.053907694856075196;0.0029090089591903992;121.0;0.10382340700359656;0.050720594855457546;0.002574262351309007;127.0;0.10224969268108819;0.05303517211070496;0.0028183760995841986;165.0;0.11083714319398857;0.04419746159979606;0.0019554287309468087;140.0;0.09982026279187499;0.04300599383346309;0.001852560223165445;144.0;0.09852738583921188;0.04123809039094723;0.001703185363115552;143.0;0.0978426726102147;0.04091417329090257;0.0016770512229825887;144.0;0.09638927447982079;0.041200207135916586;0.0017006999783407506;147.0;0.09782195884694872;0.04375201663433432;0.0019187427974403808;149.0;0.1011391626596321;0.043473311129446746;0.0018944234134854793;152.0;0.10127359945456596;0.24267599704380882;0.05903894885763928;161.0;0.15609274944231755;0.07926609688359029;0.006303347846004884;142.0;0.13377419699318613;0.08125026045735323;0.006622192680066731;151.0;0.13086905909670776;0.08015353184763427;0.006443677474958451;147.0;0.1280510275773789;0.07660565455041517;0.005886020154832903;139.0;0.12546640246219737;0.07041514758534115;0.004973759758918696;141.0;0.12154584036489058;0.06496108851542982;0.004232949045310211;139.0;0.11884859468197134;0.06144393918048143;0.00378727011925887;143.0;0.11575852616378887;0.08306865124078745;0.0069227558695067245;145.0;0.13575818656383687;0.05437135941801956;0.0029655563273896807;137.0;0.11159597316044538;0.054046728101448366;0.0029301502275210648;137.0;0.11291421764391456;0.05338438592479589;0.002858545952510507;138.0;0.11344840145240749;0.0552729083533673;0.0030635056765724493;138.0;0.1159409002048457;0.059285618982031184;0.0035242876680340405;142.0;0.11916563399672267;0.059414188628762236;0.0035409925458756326;143.0;0.11785060526280351;0.06057822389489981;0.0036807164241007594;145.0;0.11723908917440018;0.052629589189562474;0.0027782829312734372;140.0;0.10929208191201129
0.048498502360374084;0.0023517611839043617;147.0;0.11602840440797063;12.0;0.044767223404423274;0.0020059518730804245;143.0;0.11176650551314109;0.0420156572257154;0.0017685005765869376;132.0;0.10447838086300856;0.04366743924600296;0.001911530007750301;124.0;0.10284667804006015;0.04472437313535264;0.0020062707626940955;118.0;0.10146827494830578;0.04378040416836754;0.001922492540402842;118.0;0.1009599612565739;0.04199587948431135;0.001769136466011435;119.0;0.1004708841522126;0.041958593605348066;0.00175955985088569;148.0;0.10902948164484795;0.03662686455446409;0.0013452905705787104;129.0;0.09616066107367811;0.03561792570619957;0.0012718852907022855;131.0;0.09404706900306031;0.03471139334200484;0.001207849049192316;128.0;0.09449277028143012;0.0344478884278573;0.0011892422236315329;130.0;0.09429494381762721;0.0344072702370788;0.001187181550893881;135.0;0.09585312847253293;0.03572111326263147;0.001279811292580889;138.0;0.09906032794191955;0.03515844480067559;0.001239859675967634;131.0;0.09751645215384967;2.1385515174272354;4.569421545865382;181.0;0.45261775823895906;0.05665367755702185;0.003219899751951606;141.0;0.12353392935108863;0.05812919980336974;0.003389803685999225;150.0;0.12111395665163803;0.05676255202383718;0.0032320331490819907;155.0;0.11850158750107496;0.053287707835582926;0.002848364274794967;150.0;0.11582203701206092;0.04735735371774931;0.002249448265724584;152.0;0.1119302838788589;0.042364011552463034;0.0018000371127987124;155.0;0.1082426597687232;0.038696987013376406;0.001501997398751173;154.0;0.10512346006737824;0.05695869126363695;0.0032539363976889094;144.0;0.1223398598226886;0.036475968240180644;0.0013344330542351087;151.0;0.10146492490993642;0.03616519740822498;0.001310908072006372;152.0;0.10281992108024098;0.03535792367866498;0.0012535649091564855;153.0;0.10204148528018415;0.035474511707331936;0.0012617046278785298;145.0;0.1042516472775716;0.036623484450899614;0.0013449717385706833;147.0;0.1060242145127726;0.03721311943171939;0.0013873037591078633;140.0;0.10643652801968498;0.03944218554731398;0.0015577983829331038;150.0;0.10574420691888944;0.03512848886502955;0.0012376439133768124;153.0;0.09961556184667447
0.04587140920265208;0.002109704260891588;149.0;0.10587063709040326;12.0;0.04323370182786381;0.001873076148055369;152.0;0.10314756216257316;0.03469055319644851;0.0012044143714319531;150.0;0.09575511781181933;0.03364612273625299;0.0011306920595115849;134.0;0.09282269561268831;0.033572924478435656;0.0011263414716193873;140.0;0.09224056860844529;0.033362134733455215;0.0011131012457745232;141.0;0.09105144018542766;0.03235717726448387;0.0010483797778242415;136.0;0.0905491385048091;0.039180987292270784;0.0015389395153252827;149.0;0.09835503647948796;0.028363478522826394;0.0008058667195673206;143.0;0.08854783543306387;0.02750734767336059;0.0007579028405528812;142.0;0.08633569281674205;0.027099050531818845;0.0007353646550892273;143.0;0.08647211540667321;0.026783690375592438;0.000718653072590307;148.0;0.0880027007504465;0.027466982020768707;0.0007564589722134029;147.0;0.09004778562055127;0.02839555536624536;0.000808592638989615;149.0;0.09355334335605872;0.02639743604736579;0.0006985949260504185;149.0;0.09039211700476954;2.334537762144584;5.466474110203315;167.0;0.48202720617336065;0.05324714235083632;0.002844361383637252;136.0;0.12020857886172208;0.055274852852265875;0.0030652460651809186;142.0;0.11822962789314924;0.05420809205893918;0.002947965820779334;141.0;0.11680483323417984;0.0508035258630702;0.002589425358822057;142.0;0.11362148268166909;0.04585465980564021;0.0021095249940910298;140.0;0.1110000317705479;0.041853528610509595;0.0017574597252876896;145.0;0.10852197017259017;0.037818905337528214;0.0014347948136791315;141.0;0.10571737355365723;0.052672450028211894;0.002783588787836792;139.0;0.12284046870567039;0.03688194794395374;0.0013644430392887859;144.0;0.10416663459001813;0.03573477046490332;0.0012810755950438775;146.0;0.10374070195698848;0.03531212462861495;0.0012510138588667213;150.0;0.1038902979746253;0.0353973524364671;0.0012570747950262852;155.0;0.10594713247564602;0.037123107093948136;0.0013826429109700918;161.0;0.10775528727570649;0.03702858825370091;0.0013756176137305453;132.0;0.10722780680880593;0.039601575500370946;0.0015734370911483985;139.0;0.10571314157698705;0.035650971831283816;0.0012749366794120504;144.0;0.10243870362655184
0.035973946644761244;0.0012939474986270556;155.0;0.09596911996805266;12.0;0.04174830968318084;0.001745443190081147;155.0;0.0992732104514721;0.03668142058800408;0.0013484546831450167;152.0;0.09306295231549094;0.035984208385946244;0.0012984821160346095;145.0;0.09058867248681345;0.035584762625532756;0.001270140454651951;154.0;0.08935940003660177;0.03469391779151234;0.0012071960978727767;149.0;0.08742648926992293;0.032990196655425526;0.0010915733863835102;150.0;0.08591705661321813;0.032639706515266556;0.0010651373770758615;155.0;0.09043078915842671;0.028624388086250518;0.0008210691753885365;157.0;0.0828555276202809;0.027240837704344642;0.0007437912043990896;157.0;0.08116058019326414;0.02733814364293561;0.0007487217700006276;157.0;0.0812451473476356;0.027033949136056265;0.0007321161412183454;155.0;0.08106684536860957;0.026882703651085967;0.0007239133306764438;154.0;0.08357936043144558;0.02632234080287419;0.0006941097989668579;155.0;0.08701359614125082;0.025190868058463926;0.0006355574492463127;166.0;0.084832052544131;1.0137283486997521;1.0167979300367456;151.0;0.2323897870112428;0.047937304656003155;0.0023045117629560863;134.0;0.11085072624623539;0.04509554246696596;0.0020392677820948095;139.0;0.10678811857302686;0.04300105307487873;0.0018538993230523555;135.0;0.10524607948183838;0.0400098730622727;0.00160524109606182;140.0;0.10258134881074503;0.037401892669896325;0.0014030116254946689;137.0;0.10137721983575661;0.03489365613447946;0.0012214175338089064;143.0;0.09981120285561403;0.03247836538450431;0.001058016642038733;139.0;0.09697191598009064;0.048118459514730975;0.0023209726933639463;133.0;0.11504260494784059;0.03241105521378638;0.0010537147281218487;134.0;0.09767037998027887;0.031524686002756756;0.0009967957905773657;132.0;0.09742036620462947;0.030684547772606943;0.0009444406838800337;134.0;0.09718400624014153;0.031008133486224068;0.0009643827966391873;141.0;0.10026893527130702;0.03264780673892528;0.001069080680473917;151.0;0.10384119633639956;0.034279159760048535;0.0011784219737027625;130.0;0.1020209539973765;0.03969841488626686;0.0015805466262698907;130.0;0.10132114399351702;0.031204538021926628;0.0009766688840439483;136.0;0.09510735157207535
0.02946920729435929;0.0008703586601936583;158.0;0.09213217558810992;12.0;0.03601841440644072;0.0013004264715514135;145.0;0.09580848838324064;0.03509379088451605;0.001233850161723037;142.0;0.08992330815283835;0.03674270449934833;0.0013519882323935282;144.0;0.08906698908210138;0.037379190553602296;0.0013996745449222862;145.0;0.08892869647115213;0.03658568921420148;0.0013412260491626705;145.0;0.0880316178639284;0.03452349610856057;0.0011948827412546542;145.0;0.0862040157478675;0.028466773282891742;0.0008123493370825177;152.0;0.08854021069189293;0.02871438030537758;0.0008268204054437775;147.0;0.07957186204151222;0.027417413697483975;0.0007536234834951719;147.0;0.0804727856353782;0.026666392267459517;0.000713049623804479;141.0;0.08026513506842975;0.026234661504898532;0.0006903858706738482;136.0;0.07914927735813039;0.026394204999778573;0.0006989317939934574;138.0;0.08213359370513916;0.02548097332532275;0.0006514067630330229;135.0;0.08447992211208347;0.025221118157741036;0.000638114949485821;144.0;0.08416360771966362;0.37193981336622844;0.13778263744952107;157.0;0.15942833197801962;0.05622824596302426;0.0031716746240539407;129.0;0.10880610026913144;0.05494013030274128;0.0030278358885757785;137.0;0.10431743704237562;0.05454361189589454;0.0029844535840413337;138.0;0.1027016481890288;0.0512540364654914;0.0026352970599351987;140.0;0.1005986397619258;0.04813570134275049;0.002324305489443472;139.0;0.09826828755059691;0.04476677615576925;0.0020104432851262353;142.0;0.09670999674997852;0.04278691406692737;0.0018365937538130344;144.0;0.09359653208323744;0.05010479051810044;0.002518682767251289;138.0;0.10860682639512048;0.04007169409580359;0.001610820125598197;136.0;0.09349201850820588;0.03938983844380623;0.0015565321999941424;137.0;0.09393135408948486;0.03736692432300512;0.001400777804792336;135.0;0.09196431483344289;0.034675137776381926;0.001206241384865662;127.0;0.09482747356062764;0.03333015310337211;0.001114388461986547;139.0;0.09702154621929726;0.03733257804698798;0.0013982910196581526;138.0;0.09575711144881638;0.04068458988721636;0.0016602898060354937;137.0;0.09676732389305615;0.04029607571629511;0.0016288973664138583;139.0;0.09120673233073519
0.027105588472775527;0.0007366069351934175;151.0;0.09423125974312296;12.0;0.031393603570505954;0.0009879809085782776;138.0;0.09604689458844029;0.0282353626563361;0.0007998250521088035;142.0;0.08862705101834285;0.028164000205503963;0.0007957307355808677;139.0;0.08717867241732818;0.028526035342428882;0.0008161230366731996;140.0;0.08668597930897526;0.02800707519986859;0.0007868131270053149;144.0;0.08558254170192038;0.02658849842536965;0.0007090842763210415;144.0;0.0843572266271818;0.025089540459330557;0.000631282542171841;139.0;0.08850522011629473;0.022345355822887002;0.0005008095215924935;138.0;0.08034457292548615;0.02166452962867854;0.00047068074315037133;140.0;0.08067004131357466;0.02035387551208766;0.0004155400965522229;135.0;0.08120629066362213;0.01999886699639388;0.00040124950352935824;136.0;0.08090678769237528;0.021208728514712224;0.00045125656878175935;135.0;0.08384182210204609;0.02248950961990905;0.0005072516519386098;130.0;0.08638718378654239;0.022550522514076434;0.0005100671367431653;135.0;0.08623964712542644;0.1483037106035476;0.021873466029735757;154.0;0.12727436732031577;0.05763588142550708;0.0033325842187244908;129.0;0.1073280913350222;0.05727676943628949;0.0032913327828870986;134.0;0.10524989229215906;0.05700365247529607;0.003259994672339336;133.0;0.10366357592679575;0.05452360584731663;0.0029825376036960627;132.0;0.10163716321641351;0.05131046084678674;0.002641360046211726;132.0;0.0990363705158278;0.04793396207549661;0.0023050898835492747;131.0;0.09876466785686248;0.04595762592211761;0.002118989671310569;136.0;0.09642412604616289;0.05040967757578454;0.0025492536232175635;141.0;0.10793489348561473;0.04337937316287447;0.0018878962250502395;135.0;0.09672286816341681;0.04366842030728696;0.0019130907807380316;142.0;0.09879752998856571;0.04321687734195402;0.0018737019896745025;145.0;0.09861366481834531;0.04122812312429368;0.0017052945108521637;142.0;0.10093811534538968;0.04028904578652274;0.0016285120639689113;152.0;0.10285067693423788;0.04090299947509855;0.001678312720356874;151.0;0.10064093471138946;0.03807107306661207;0.0014539833089078802;148.0;0.09729330401060031;0.04392116270371756;0.001935360438023586;138.0;0.09625852879766898
0.03175835634656512;0.0010103903310717756;138.0;0.09747286158146026;12.0;0.036467160009669666;0.0013322676258715558;127.0;0.09971179280984621;0.032504206033406834;0.0010562834052324226;118.0;0.09154563042080743;0.030596830300877738;0.0009349142220671378;122.0;0.08760311375455897;0.03009262797624111;0.0009038690895899001;128.0;0.08641738142026567;0.028719269566504415;0.0008227405905926285;126.0;0.0844108426721454;0.027955330206429214;0.0007803400816568082;127.0;0.08323426538719429;0.02795643332687029;0.0007825990195121425;126.0;0.09060534086604631;0.024865735878754115;0.0006176757393415644;125.0;0.08107098335183087;0.024965712611592583;0.0006226882852680474;130.0;0.08093147982592049;0.02481367450107569;0.0006151224560283232;126.0;0.08132216057359565;0.02519701340972544;0.00063518772149634;128.0;0.0812726925371046;0.026694524203895103;0.0007138711663360912;131.0;0.08414780209841467;0.028400249741470963;0.0008083353293332923;134.0;0.08748371788655637;0.028182349085973914;0.000795176994978687;128.0;0.08705510680294204;0.08448199021456479;0.007143269272169337;156.0;0.11143985760667202;0.054380518271624004;0.0029545267267250684;133.0;0.10276336984164174;0.05306750660600702;0.0028114698399969167;137.0;0.09970589602446826;0.05135901607559503;0.0026349777713281547;136.0;0.0978789022058353;0.049234857979072205;0.0024214083768861923;135.0;0.09550582056869866;0.046390897598858956;0.0021498155655001907;134.0;0.0937402294665045;0.04335676144835593;0.0018779185782627932;135.0;0.0926888182226338;0.041637371447982366;0.0017331805408153421;132.0;0.0916132714857224;0.049794884829129894;0.002475857157265741;140.0;0.10445860209598713;0.040492058264344634;0.001639198535674257;135.0;0.09231826221503978;0.04071281249876234;0.0016563591149444461;136.0;0.09573697565832254;0.04132862728592524;0.0017060197633531277;141.0;0.0962746734182776;0.04127404010400457;0.0017015200364656892;140.0;0.09902768817186597;0.04189723983616284;0.0017539751577906764;143.0;0.10191572298060952;0.04081863913172233;0.0016638343352406387;139.0;0.09958137848405477;0.03763448167100689;0.0014141237046811823;142.0;0.09628529584901463;0.0400083824058954;0.00159955208076841;132.0;0.09236808177182648
0.03276646299739292;0.0010770785389600716;139.0;0.09321777839244545;12.0;0.03770548067329689;0.0014262350100140927;125.0;0.09488548998952538;0.03666869075690581;0.0013479658727316131;124.0;0.08963907727482677;0.03675519597572634;0.0013539612682805715;130.0;0.08678203729897752;0.03654326744692872;0.0013382723022729998;137.0;0.08640558890073104;0.03515257890815165;0.0012377770979632532;131.0;0.08436585876965354;0.03419247408776523;0.0011712531602987469;130.0;0.0834138302329457;0.03029300634336914;0.0009204962741579457;136.0;0.08919528765773278;0.030418172481033314;0.0009267022917630125;135.0;0.08064138299530524;0.03028756669384815;0.0009185104843351067;139.0;0.08126641618849684;0.030163492160557928;0.0009115376863169065;139.0;0.08093265387851782;0.029966069914194222;0.0008999198404696904;137.0;0.08095756525898502;0.030540920230294845;0.0009352498434517095;140.0;0.08399898699849007;0.03112422307019488;0.0009716947756170797;143.0;0.08766012653968012;0.03144370812371762;0.000991594916176831;138.0;0.08686011330349841;0.05555155580490365;0.0030956031332408005;157.0;0.10623834753114034;0.04615063437106976;0.0021356096064358986;162.0;0.0995961528933543;0.046272792012401885;0.0021478960393602974;158.0;0.0958370495805769;0.04592558118134459;0.0021149449245847153;156.0;0.09390134650045481;0.04356005239949383;0.001903197602928867;156.0;0.0914422237482471;0.04145552782727628;0.0017234523402690737;159.0;0.09038091639400839;0.03898453943376308;0.0015242655488308682;165.0;0.08950904517003512;0.03763893474807097;0.001420636974204749;162.0;0.08859996770222185;0.04498250811791681;0.00202878701987578;166.0;0.10201844785599591;0.03657646582829844;0.001341470326571858;159.0;0.08793621538088618;0.03673200904226149;0.0013531509527913957;160.0;0.09237334873621292;0.037615436221710874;0.0014193259970671458;159.0;0.09299502611219204;0.03817580805233303;0.0014619964149454564;157.0;0.0953486848533231;0.04024817321570814;0.0016245502088861803;154.0;0.09853871796855719;0.04085083537148777;0.0016740038905186038;158.0;0.09552267416964028;0.04036661961132876;0.0016348442886288225;157.0;0.09495629505517442;0.03599091184545198;0.0012987666826169717;156.0;0.08732748457555892
0.02205934450454011;0.0004881442508820574;159.0;0.0778388353024019;12.0;0.02442142438263895;0.0005983213513780064;151.0;0.07790680358234707;0.025723883625604606;0.0006638908761269778;162.0;0.07548328366636237;0.027812242844642062;0.0007760276818381171;162.0;0.07530221669938834;0.028453746811819988;0.0008122704873525563;169.0;0.07616720838688269;0.02786176440489477;0.0007788078664294881;164.0;0.07390233288338087;0.026813587384038606;0.0007213061098095732;163.0;0.07342885685861486;0.022037663935471647;0.00048704233869886965;163.0;0.07767997008357395;0.023847860708207668;0.0005705512890241659;162.0;0.06979466243035788;0.02349559660177813;0.000553814089051525;166.0;0.0701095603344901;0.023108985001314444;0.0005356126044567853;168.0;0.07017274598656849;0.022632787571141105;0.000513815225535539;164.0;0.07175582072994267;0.022728570784500392;0.0005182790151117621;161.0;0.07303680972701063;0.023045636243118114;0.0005327369242940939;163.0;0.07662766734504806;0.023383599405391475;0.0005483160055058205;171.0;0.0761781796937615;0.05647913752581712;0.003195486830802793;145.0;0.10349182151479085;0.06586534308294596;0.004330292424675003;169.0;0.1127720278852434;0.07111723012064156;0.005054786758309983;165.0;0.11265653331969631;0.06969166152025126;0.004851513157655655;165.0;0.11096547923385609;0.06478271422191957;0.0041938678685321945;163.0;0.10852374208751162;0.058557747610678466;0.0034230473626429025;170.0;0.1056848947261323;0.05372006663288682;0.0028798367521767954;173.0;0.10375933585863578;0.04968922053900838;0.0024640052974300637;170.0;0.10174127683195638;0.06266490257378513;0.003918782699437745;168.0;0.11313056302034576;0.04341230092485134;0.0018781869867770201;159.0;0.09819759445401859;0.0427638573492852;0.001822138677626121;163.0;0.10166326997415731;0.04277219726105755;0.0018229308324183696;161.0;0.1020536122567403;0.043019987644755;0.0018453178477196225;163.0;0.10233682922913048;0.045741884883166;0.002086335287403812;161.0;0.10389765177546705;0.04650268553882059;0.0021539356526681696;167.0;0.1027804311888626;0.04485197975527885;0.0020009823304304006;160.0;0.10181885008832754;0.04398614601493039;0.001929723663972616;162.0;0.09732020582122287
0.04173035180416481;0.0017424634517695316;173.0;0.09865932259198164;12.0;0.05367479259073647;0.0028790637537162394;169.0;0.10283550671896004;0.047282599455247;0.0022336995939597304;173.0;0.0957010577055331;0.045569966780197764;0.0020739380932804485;165.0;0.09356900224941847;0.04499814019945844;0.0020225656275762276;168.0;0.09406127905292332;0.043127363358887144;0.0018574127829196192;165.0;0.09149766204585048;0.04014171488184859;0.0016081180013183347;164.0;0.08922624582055155;0.03648916398444091;0.001332241220079971;174.0;0.09462487219228356;0.034924017620441415;0.0012166294452480386;165.0;0.08497912043226928;0.033718566613234476;0.0011344646369753103;166.0;0.08496015585975766;0.03249749318914376;0.0010540158626847723;167.0;0.08326673062842166;0.031037958210128946;0.0009597952203215262;163.0;0.08379125411835998;0.030130195511769965;0.0009053349222386302;160.0;0.08321078086690543;0.030246384304638406;0.0009124330244981144;162.0;0.08451248047783995;0.03137554964556674;0.0009819212337088218;169.0;0.08736308037261292;0.05591050359836603;0.003136070801224143;147.0;0.10771962076354365;0.08292694423364821;0.006898770884577939;154.0;0.12376810089680412;0.08605298043870603;0.007428575388499072;158.0;0.12388425966501776;0.0834953965114202;0.006992998886583078;161.0;0.1221611605449012;0.07758437743601354;0.006037367340545781;160.0;0.11953442550585129;0.06901118503782747;0.004776955592240963;162.0;0.11610981735478676;0.0630879682151934;0.0039921875250191865;159.0;0.11238932722037015;0.05756126448464634;0.0033238936170335315;157.0;0.11050950448882749;0.07636790625579462;0.005850611460552192;150.0;0.12144756300779776;0.049303116976290334;0.002438419413181569;149.0;0.10656919522235322;0.04769821721891354;0.0022822208135465476;149.0;0.10733147607014536;0.04680115644989148;0.002196806534792085;150.0;0.10700271263071244;0.04874571749632957;0.0023830646715117428;156.0;0.10867864433999028;0.05298158053855235;0.0028156372084534352;155.0;0.11071091841526182;0.0537636747792308;0.0028995957040882743;151.0;0.11001669835598678;0.05227409534478995;0.0027404008817786636;149.0;0.10720018974454162;0.05000936780423603;0.002509045813177691;153.0;0.10577640148384211
0.06223596815928074;0.003879298379475574;168.0;0.12403358894333136;12.0;0.0789030781309531;0.0062424409760727315;169.0;0.12844871805966698;0.07048022656298829;0.00498166588536374;168.0;0.119606795102281;0.0693617583079966;0.004825958920184718;154.0;0.11617906397385269;0.07037207023321498;0.004967931469421394;151.0;0.11645079203923761;0.06822828236475824;0.004670180564568993;147.0;0.11380614785640711;0.06516807103744464;0.004260575700537363;147.0;0.111519497331744;0.053510520182899146;0.0028676922098485134;173.0;0.11493447754074126;0.05692838963471731;0.003251226126727148;151.0;0.10699576559079743;0.05437119583849563;0.002965624361946416;151.0;0.10571074616286903;0.05287043273322456;0.002804322749429818;153.0;0.10378243203076397;0.0507364366459475;0.0025821421477570158;151.0;0.10296371858856214;0.048546359469124396;0.0023641281932954825;152.0;0.10242792763550776;0.047502373140073634;0.0022634780688042485;156.0;0.1022355375210042;0.04933275529381596;0.0024416017142052915;155.0;0.10425899507065413;0.07111955041709092;0.005074545102787273;161.0;0.11801495196079732;0.08630996750913604;0.007452975942394888;155.0;0.12694374048652482;0.08726246150963478;0.007622709525519764;153.0;0.12643566975733833;0.0854216788086221;0.007305698705804065;157.0;0.12525981116925713;0.07992847423932527;0.006397617265004863;160.0;0.1227847634145436;0.07082133342399233;0.005022708990263031;162.0;0.11848196773178363;0.06374875802052589;0.004066121873837368;160.0;0.1144243509786838;0.05892287714518407;0.0034708776150788032;158.0;0.11253750556011563;0.07918701680092347;0.0062755276141901375;138.0;0.12800225441729463;0.052811467702276634;0.002788716836757818;158.0;0.10837974443701028;0.05228095376752829;0.0027323579872774073;159.0;0.10835307409060646;0.05206832692070754;0.0027099938510601828;163.0;0.10782311846938318;0.05445709065414615;0.0029648744888507396;165.0;0.1111303031003709;0.05671313763039154;0.003217631929785393;156.0;0.11346356841930327;0.05762403927967524;0.00332231241452981;157.0;0.11121838352985343;0.05885364928969257;0.003464783713019251;153.0;0.11005246518691508;0.05194839993289957;0.00269832785233259;159.0;0.10713116558523296
0.0747761695145142;0.00559844419766524;138.0;0.12460521537396267;12.0;0.08480160066026649;0.0071963312303980256;142.0;0.12338971498096192;0.07827443777851394;0.006128214981498901;142.0;0.11655051118343321;0.07680734013855862;0.0059019081587385865;137.0;0.11449782738513381;0.07673796758588886;0.0058937380351826996;134.0;0.11530132624048944;0.07435486887192755;0.0055322920019800085;129.0;0.1139416949753738;0.07052376409030292;0.004976069977744072;129.0;0.1116081888640787;0.06352108725368313;0.0040384687338263095;142.0;0.11222389701588442;0.0615149045875472;0.0037859293001956677;127.0;0.10675925340942301;0.05919568150598692;0.00350603693780466;128.0;0.10553310995881304;0.05722925069157343;0.0032780058345322554;129.0;0.1039971014004739;0.055637216488017026;0.0030974607888596;130.0;0.10376826603721749;0.053930668649240496;0.002909976788898821;130.0;0.10253783621396548;0.05409231365881744;0.002928188995591844;135.0;0.10425955014648897;0.05665325486432585;0.00321104040338606;128.0;0.10618215842527383;2.150267959972011;4.620939454598068;168.0;0.43451387534505637;0.08315257159923752;0.006935514793517903;156.0;0.1324105417028733;0.08804717126912624;0.007774200006645016;155.0;0.1325595832395551;0.08780015668415012;0.0077310129365897404;153.0;0.13199875689264193;0.0825348641193832;0.006832633989762392;157.0;0.12944471877679847;0.07423722553321335;0.005526751749754777;157.0;0.12437563755933813;0.0669513697475966;0.00449648783349359;158.0;0.12037157440805543;0.06257653674673525;0.003928150643312728;160.0;0.11739816739728248;0.07803413434553873;0.006108009186698057;136.0;0.13138681677071393;0.05635247703536064;0.0031859184164287936;160.0;0.11259786914353981;0.05630228592495794;0.0031802847132942004;160.0;0.11221444208237802;0.05598960817327602;0.0031450398207223218;164.0;0.11192732558927904;0.05752340831817348;0.0033194764671156526;167.0;0.11342176515878445;0.0590319692157131;0.0034961068301805356;161.0;0.11524889268633849;0.059234940910362376;0.003520154223050185;166.0;0.113813466119215;0.05956075049077639;0.0035590256345868774;157.0;0.11384883024391243;0.05537592502574292;0.0030762435294261156;160.0;0.11153814483418903
0.0718637417958637;0.005180219783991799;134.0;0.12630050818350547;12.0;0.07734107170885386;0.006000837948755911;137.0;0.12366687790867577;0.072283346096775;0.005241808123672062;141.0;0.11512512587988609;0.07042791048957174;0.004975122873184282;146.0;0.11159734741877546;0.06901773634109973;0.004776409420155414;147.0;0.11127420646814558;0.06654143183065916;0.004440309969189521;144.0;0.11073727221047425;0.061889197390761055;0.003840734811740876;145.0;0.10797444012199388;0.06203236952635929;0.003859192365634942;136.0;0.11525448990776722;0.05360978445311222;0.002882561736621495;144.0;0.10323617852309666;0.05223221765472807;0.002736290878264916;143.0;0.10218120008229158;0.0500830728150655;0.0025152093707502335;142.0;0.10106483801938672;0.04950220410680908;0.0024573692019616063;143.0;0.10139764476136336;0.04807318198326435;0.0023177170275579906;138.0;0.0998221043038069;0.048412117249583816;0.0023503258987704226;141.0;0.10173702573994256;0.05132802156852036;0.0026423748363291746;136.0;0.10473192724888379;2.3714111689638036;5.640291177617505;155.0;0.4721527836489942;0.06711706110547053;0.004511362298701692;156.0;0.125731582293235;0.07070681577128382;0.005006366584151138;159.0;0.12419022954856794;0.07017897308506306;0.0049336115122947935;157.0;0.12236468981670302;0.06582572625926784;0.004339813350669661;161.0;0.11952676688851227;0.0598690094688538;0.0035909001919846115;153.0;0.11569994252616406;0.05520741731137811;0.003050850933468639;158.0;0.11281779733498594;0.051637417790424855;0.00266878330304679;164.0;0.10985112947863616;0.06691709459305199;0.004484826701428516;150.0;0.12469412463267147;0.04640564025584777;0.0021527147963434066;164.0;0.1048330267414987;0.04580117167286185;0.0020962075256875322;162.0;0.10378105821430185;0.04566260799287655;0.0020838628007356463;159.0;0.10368535412055062;0.04636143735088965;0.002146513749748955;161.0;0.10430485430013013;0.04878320635503322;0.002377212630173971;166.0;0.10655915104498057;0.04880641430174096;0.0023839452967065874;168.0;0.10503097438987649;0.0483158517306007;0.0023374841117265056;158.0;0.10517236393435547;0.04637658145648071;0.002150716244550864;163.0;0.10443649650104246
0.04762801121314118;0.0022708236216421917;153.0;0.11468591367814325;12.0;0.05347068335384864;0.0028618673368289754;153.0;0.11460108475807672;0.051277279462604075;0.002632421447712139;161.0;0.1059993356249605;0.05166908885094369;0.002672660857770896;162.0;0.10225013331298292;0.05237572364967964;0.002747177921034415;157.0;0.10174596252557659;0.05077288353864725;0.0025815041164060633;155.0;0.10044636456343461;0.0482398455535568;0.0023294990033689363;161.0;0.09858646821608086;0.04283282847261571;0.001836275621031654;155.0;0.10737578343177213;0.04163269825847456;0.0017345996672562143;162.0;0.09446329695040138;0.040298587370549574;0.0016255928864362839;166.0;0.09316442523087694;0.039233545049102155;0.0015412755709468527;169.0;0.09274912771661119;0.03967506513271012;0.00157533618845428;170.0;0.09384553728442904;0.03769775616289196;0.0014233617750814258;167.0;0.09314040640158741;0.0369639913477564;0.0013676353612544706;173.0;0.09491576519054165;0.037550760276905806;0.0014109183016151373;176.0;0.0956005620454678;1.0631983788492092;1.1194151382914923;154.0;0.24037929280510298;0.06026155108665281;0.003629989377119765;147.0;0.11060719621143995;0.05905070104900332;0.0034832294417111234;146.0;0.10833332067415322;0.056436123919850666;0.003180028673956913;148.0;0.10627636049689511;0.052054794966242754;0.002708203568183833;147.0;0.10337927347865729;0.047161177990877316;0.002221589018230222;137.0;0.09991665828849326;0.04312673545205985;0.001860589086500702;150.0;0.0974979942375349;0.04034783645584861;0.0016285728162375955;152.0;0.09537194605035727;0.05965346503758845;0.003559040893475119;145.0;0.11338598364480668;0.03718508797445149;0.0013860580250055312;151.0;0.09227939753706911;0.035970404152355355;0.0012967755525031205;152.0;0.09093218169336126;0.03635496113478365;0.0013251870069785586;145.0;0.09092331927811154;0.03631626949692045;0.0013228783942904332;142.0;0.09173115815446892;0.03636383670492924;0.0013261504625006403;147.0;0.09290453993674024;0.0365869035640951;0.0013420190093624918;150.0;0.09048286818635616;0.037368546256393596;0.0013994182374974316;147.0;0.09170110017099677;0.03691110024834328;0.0013648815073187865;152.0;0.0912765795217302
0.03473312095783308;0.001208661931559208;145.0;0.09992767738240232;12.0;0.038649029754543644;0.0014932082148380974;152.0;0.0998015458143588;0.04118044924976025;0.00169763500577412;158.0;0.09426305037068687;0.04264400736841353;0.0018199435297893889;153.0;0.09383650315356278;0.042510022440928004;0.0018084807337373327;149.0;0.09343629205773021;0.0425495266044525;0.0018128569514843434;148.0;0.09260821143917154;0.04095160666327297;0.0016789096844134152;152.0;0.09176358344263254;0.034631541370439695;0.001202080388614058;146.0;0.09472728065482415;0.03641243206929649;0.0013267880042039726;151.0;0.08528898921977056;0.03542840465947895;0.0012559645361238498;156.0;0.08486841347405223;0.03466802151693998;0.0012027595772267736;162.0;0.08514021489935973;0.0344946436774318;0.0011909456409321623;164.0;0.08572246019293378;0.03337037799741079;0.0011147944913993636;163.0;0.08717423110478477;0.033840424812624545;0.001147275549501094;169.0;0.09046743423070135;0.03359301036373345;0.0011306059001101436;167.0;0.09006138229296592;0.38444225800595966;0.14741874489955556;165.0;0.1674177532702076;0.059784592437405734;0.003585894527558188;128.0;0.1110992698983425;0.0565623679031582;0.0032097816402481137;130.0;0.10662415530277147;0.05337639406742402;0.0028583633588356544;131.0;0.10412503816899889;0.04831668180525225;0.002342159081294772;128.0;0.10123371961287822;0.043811689248217926;0.0019257556216444654;131.0;0.09774285316581273;0.039348635943903996;0.0015533956326439276;143.0;0.09550327031058596;0.03668680176506759;0.0013503103804787424;143.0;0.09374175406554086;0.05662109290794636;0.0032163326287563392;126.0;0.10927902003661699;0.03456411478476155;0.0011984923606850107;139.0;0.09063610439355334;0.03414978286409824;0.0011697762672508978;138.0;0.0899978503278749;0.03511855438788504;0.0012369071606186028;134.0;0.09157833738383028;0.036743835915166036;0.0013539304934740836;132.0;0.0951582237873092;0.03721481297368003;0.0013885569518115694;136.0;0.09848238720146732;0.03866916927755766;0.0014999550450303437;139.0;0.09751201674060642;0.039626475447965576;0.0015753201190987058;144.0;0.0963682426183115;0.03346240958292743;0.0011233718392276856;142.0;0.08864105889022637
0.040754260115628466;0.0016663210906504864;148.0;0.09991000557024264;12.0;0.04554596063698588;0.002080945411446031;158.0;0.10060575161228984;0.04683288749200012;0.002200442687920038;159.0;0.09553521420691669;0.048369672379047164;0.0023472893700142994;151.0;0.09340347696699693;0.04849824398198466;0.0023598023442106338;153.0;0.09252348891703467;0.04830808645774064;0.0023413330454957384;153.0;0.09202250453232844;0.04654163486787298;0.002173254477035559;151.0;0.09148890949688446;0.04014990386272113;0.001617271945608261;146.0;0.09640614334239773;0.042410621034901536;0.0018044544758022934;152.0;0.08616026015681587;0.042032973569470604;0.0017725548211448673;152.0;0.08575258709082824;0.04123216855563287;0.0017056864144839878;156.0;0.08629690936249983;0.04073955597089185;0.001665173986604478;155.0;0.08572754112952226;0.04172642697907691;0.0017467801378395636;153.0;0.08822724511462414;0.043440135930910735;0.0018930885769802028;156.0;0.09319291432351455;0.04346819904240586;0.0018956981953659642;147.0;0.09335195795558043;0.16944753619073832;0.02857253477011747;159.0;0.1377681187043942;0.051839825356568114;0.0026955871057829984;129.0;0.11264655677046342;0.04972537102277947;0.0024805298243795004;126.0;0.10734038824373097;0.0480621694020714;0.002317551629686464;126.0;0.10474422210988014;0.04400566364766637;0.0019428493433055252;127.0;0.10237319953354708;0.04021594652567509;0.0016226185275424467;129.0;0.09984019310572885;0.0367761400808666;0.0013569117267133671;131.0;0.09779059192242949;0.034224942111305286;0.0011751814283218424;132.0;0.09641708164876946;0.04840763940573848;0.0023505035684420828;133.0;0.11128380831759216;0.03141839224184447;0.0009901262475123277;135.0;0.09200978684746312;0.03122587468209222;0.000978188828371862;136.0;0.09395926497954755;0.03170744976036282;0.0010084395471413933;131.0;0.09314318390063482;0.03284178740218118;0.0010819075261803066;135.0;0.09713154894112795;0.034377111162780694;0.0011854545364988662;138.0;0.10199837796959318;0.03650527052037178;0.0013366310696097882;141.0;0.10178482208596734;0.038414409631527785;0.0014801385136286682;144.0;0.09969516396233935;0.030180906201522074;0.0009138058798292841;137.0;0.09105084188718045
0.04003588509634349;0.001606160066665176;154.0;0.10273916275753955;12.0;0.04495638189338534;0.002024356847179456;165.0;0.10668191416355294;0.04368164337550695;0.0019123291301901566;155.0;0.09780534264294641;0.04491396568070211;0.0020216273503187187;145.0;0.0937366753967376;0.04560716354774807;0.002084265528711219;153.0;0.09220952084029775;0.04473498815669952;0.002006368296280961;151.0;0.09097118149161139;0.04390757190009961;0.001933034081316743;152.0;0.08962324870470022;0.036504383815392234;0.0013353011913602982;147.0;0.09648751723751794;0.04046106685981884;0.0016412981207869165;149.0;0.08719657687028912;0.039820822951549796;0.001589791457909407;150.0;0.08636518677719167;0.039319640567649514;0.0015500930347221956;153.0;0.08566891503253785;0.03936337948593114;0.001553240268449258;159.0;0.08617119833541038;0.04099437190166847;0.001684771154736742;162.0;0.08803040113335024;0.04222021733215541;0.001786854708649072;160.0;0.09236297183514008;0.04184352672437869;0.0017556586272369972;153.0;0.09248610131159062;0.09879532411041396;0.009728778115118023;165.0;0.11684837176414488;0.04388872560868659;0.0019311774193704145;158.0;0.1042149000976803;0.0456722565484729;0.0020905146936446026;154.0;0.10324768110910303;0.04549575177701443;0.002073690926456436;154.0;0.1019840788191381;0.04352902257530296;0.0018993333639445039;156.0;0.10029617844424912;0.03962758516893971;0.0015738854145329944;153.0;0.09757429030641207;0.03703072259041274;0.0013743833744638753;152.0;0.09537357404954215;0.034396663051373254;0.001185730209178044;152.0;0.0938794592195047;0.04144244855771982;0.001721996100063442;162.0;0.10731612883883607;0.03121613868795509;0.0009765446069207617;160.0;0.09082789907973098;0.030337802959648812;0.0009221328716516495;162.0;0.09177711875967105;0.030328189757272934;0.0009216579622551135;160.0;0.09087272426982443;0.030686555169332958;0.0009435237110441502;155.0;0.09456175139686716;0.03399621484861664;0.001158172779760583;153.0;0.09879928606573411;0.03481145026628427;0.0012142410750978154;161.0;0.09865644568906859;0.03499091698885966;0.0012268633234276067;164.0;0.09618807590195944;0.03019565302585654;0.0009137627672912201;160.0;0.09040617130033163
0.033638130635888025;0.0011352116941325465;151.0;0.10242170093236161;12.0;0.03559079988189734;0.00127055713606483;153.0;0.10481702191699308;0.0332489927975204;0.0011087002320426752;151.0;0.0942537420047528;0.033319333527388265;0.0011135835583288801;149.0;0.09029484121717449;0.03359757861141159;0.0011319575617663696;164.0;0.08810092129084554;0.03351104648094027;0.0011264688507899902;157.0;0.08711828249839099;0.03267161122498744;0.0010706892629547679;155.0;0.08523262002041736;0.030347469063294413;0.0009239136181822544;142.0;0.09392001393042021;0.030385477297492774;0.0009260872023444666;151.0;0.08031165043679997;0.02932542540188752;0.0008627213957197295;151.0;0.07931931753589219;0.028910222649108728;0.0008384495693776276;151.0;0.07931913494464064;0.028327005474746692;0.0008050089038008994;157.0;0.07888135047516699;0.028826517752185327;0.0008336404713910288;151.0;0.0803154792228708;0.028186788128267134;0.0007970912901166544;150.0;0.08174736629505636;0.02813824332283947;0.000794275116403971;151.0;0.08214221265647545;0.057431070770423864;0.003307152834010504;158.0;0.10500323091644923;0.037713896040141005;0.0014268651529236126;161.0;0.0966710611151548;0.0391980622506642;0.0015407211764117863;162.0;0.09590315200506619;0.03893579779953871;0.0015196311502519337;166.0;0.0947173523687261;0.03760072351141903;0.0014180029718300446;164.0;0.09221926868577963;0.03451703384150574;0.0011947646480757867;164.0;0.09001191976893419;0.032674330187869895;0.0010706235410748283;161.0;0.0880908859662041;0.030858108654128667;0.0009548355683712198;163.0;0.08659337448847687;0.03770364792503441;0.0014257870061440364;161.0;0.10009901064122634;0.02856893513412751;0.0008183359884900022;166.0;0.08359470956371919;0.027865549253106966;0.0007785560830639669;168.0;0.08293335243025476;0.027966701545045262;0.0007843820216764002;168.0;0.0845459574788938;0.028764881463368197;0.000829878384342079;161.0;0.0892350732802395;0.03219848256521083;0.001039982912851505;157.0;0.09297655484710057;0.03424481190465798;0.0011761442602524139;161.0;0.09209897985007265;0.03288788346735146;0.0010849062562098145;160.0;0.08875180064798502;0.028052721698285477;0.0007886163216990379;167.0;0.08236876882640877
0.0320206209348726;0.0010281383153340595;144.0;0.09514401179218865;12.0;0.03618875235557158;0.0013124518274572675;141.0;0.09536442439409062;0.035564160689284675;0.001267041415815479;150.0;0.08942961692069319;0.03634864968433979;0.001322794263503673;150.0;0.08712554408175596;0.03789388527970514;0.0014379140180134275;161.0;0.0857145931329316;0.03753848106713173;0.0014108517058456032;155.0;0.08513324571167775;0.035900871673679745;0.001290339462387094;150.0;0.08359836580014378;0.02927232958547449;0.0008594622998400178;142.0;0.09006009765732839;0.032279579463014234;0.00104307414462611;152.0;0.07929030845703135;0.031056552049823032;0.0009659278812239355;150.0;0.07847294934098581;0.02996730778510427;0.0008994821244301906;151.0;0.07911942275605438;0.02873975623815389;0.0008279416359719162;143.0;0.07763900416329836;0.029120378779649077;0.0008499839137221368;137.0;0.07811128393916628;0.030413508196216688;0.0009276918070078892;141.0;0.08067346652865796;0.03014484258037768;0.0009110250527470723;136.0;0.08226679516170682;0.0581588397915126;0.0033934872503784633;156.0;0.10321927021151515;0.01948862036524036;0.00038033418677629844;151.0;0.07400400409931518;0.018939043857365542;0.00035976960339931024;150.0;0.07258096844321689;0.019418787481140308;0.00037820543119520996;153.0;0.07234526268154697;0.01883924778125654;0.00035572682041716487;152.0;0.0709765742605224;0.017950772893206977;0.00032301788382567534;145.0;0.07006127565891353;0.01751068645585462;0.0003075503771348701;142.0;0.07009130735645502;0.0172401109274099;0.0002980953903236306;142.0;0.07004299068804422;0.01919864372469346;0.0003696957661785957;143.0;0.07481387028455481;0.016178936619002156;0.0002623126272174732;158.0;0.06682542968121302;0.016268333513346545;0.00026541421077460204;163.0;0.0683015254295524;0.016569150162769688;0.00027532845839492334;164.0;0.06938431352964143;0.017136451404076842;0.00029430585840107453;156.0;0.07070620462687117;0.01830138252772881;0.0003355159755520395;156.0;0.0713347546633104;0.021177213846631814;0.0004494151127800812;152.0;0.0693283874844601;0.02073951873549011;0.0004308876343347813;143.0;0.06667390429841513;0.015585906410186007;0.0002436767474243182;153.0;0.06471975894018521
0.0507154527264542;0.0025757142728880596;140.0;0.11574830256858962;12.0;0.056686665932596095;0.0032209149420818753;149.0;0.11407784920589144;0.057742299068706475;0.0033435942501320697;151.0;0.10632456222361114;0.05933743489072941;0.0035308818654288827;152.0;0.1046078133474165;0.060375982957877224;0.003656446336534081;156.0;0.10403573673853334;0.05961149771364241;0.003564429787627046;155.0;0.10382710147217765;0.05727400345661011;0.003290390341562332;154.0;0.10202977798194825;0.04647369504060805;0.0021641428887313216;141.0;0.10623896870292653;0.05038020345960567;0.0025461486539007324;157.0;0.09775612451852501;0.04848149181614529;0.002357675784000174;156.0;0.09804178256974069;0.04636928839146664;0.0021570080112994785;157.0;0.09679786101334152;0.04437651600550795;0.0019757096378592333;149.0;0.09581670677016224;0.04354904692566513;0.0019027401534656085;150.0;0.09572723356655195;0.04417002269216222;0.0019574160319557605;154.0;0.09839966267866007;0.04549297589955114;0.0020763722284957964;145.0;0.10136931139776148;0.06419846865747342;0.004128927267865865;152.0;0.10904533647157813;0.03427471067293142;0.001174054806586383;155.0;0.08839303942084333;0.03507563292202817;0.0012309779214748112;157.0;0.08713342105876949;0.03477714295451325;0.001210096656020419;158.0;0.08676297977530553;0.03311184753799736;0.0010973941548926766;164.0;0.08506947911041857;0.030405243141566785;0.0009253115822973793;155.0;0.08365277243689352;0.028150497884886518;0.0007928822277672273;155.0;0.08297241421541192;0.026843865450776064;0.0007211459316899371;152.0;0.08177353444793062;0.03581259802782035;0.0012823042276873453;145.0;0.08800127451850864;0.02483457070814963;0.000617170147377501;167.0;0.08004257705887524;0.02479913477177706;0.0006149218023759341;168.0;0.08258067151880683;0.025229954389496705;0.0006362699243272793;171.0;0.08369140142471657;0.02428248701938326;0.0005892206585837138;164.0;0.08099728486487717;0.02474713162575298;0.0006115821566169008;167.0;0.07945598762496289;0.026323898297870334;0.0006898635334993274;165.0;0.08017335453474067;0.027321151277229946;0.0007422711273134917;162.0;0.08219063732808532;0.02536223334539522;0.0006440038403502096;158.0;0.07799767748408193
0.07065896672417914;0.005009084210821566;135.0;0.1383841595686986;12.0;0.07222436661275577;0.005232908894736055;130.0;0.13344256896556425;0.07505408572748229;0.00565149202530904;139.0;0.12410256802414528;0.07912520755180995;0.006280568974808248;151.0;0.12358107243489622;0.07979721056759882;0.006387449364064389;157.0;0.1228380512673473;0.0787256762341038;0.006217303624869097;156.0;0.12275390995777687;0.07567975278261986;0.0057450286025289695;156.0;0.12015832272890793;0.06821999131884748;0.004669229699658828;134.0;0.1270530230302911;0.06653983715208005;0.00444171970050357;158.0;0.1137983010587141;0.06448564128860236;0.004171795272683136;159.0;0.11391869353280518;0.06171408530895495;0.0038207302360635464;157.0;0.11168792597854475;0.05893398348827243;0.003484240069063092;150.0;0.11022093770058557;0.05693232364894259;0.003251718934695099;146.0;0.10938982169315008;0.05735615846257466;0.00330005031055168;150.0;0.11080129523161912;0.058720376410704996;0.0034586391795621337;150.0;0.11293697810178813;1.7276603609530519;2.9871503429569515;149.0;0.4134032333778986;0.06693556951257501;0.00449121712194253;152.0;0.12523453347447663;0.06833906056945799;0.00468389891252492;150.0;0.12345281915456123;0.06712007169025103;0.004517989646690055;152.0;0.12286927041044592;0.06344549408772274;0.00403692234297645;157.0;0.12013676344477817;0.057820506047005796;0.0033529733916556163;151.0;0.11642652703248309;0.05335436717423241;0.002855715579553776;154.0;0.11368945183264766;0.050462078776796024;0.0025547009014456326;153.0;0.1111488769062639;0.07078986467736861;0.005024158553712812;147.0;0.12489467756979628;0.04571354429141052;0.002096370135815384;149.0;0.1090114695819181;0.045429902113486464;0.0020706507273473276;153.0;0.11064937567560168;0.04535428946428023;0.0020636897300540433;156.0;0.1120478989136932;0.04532300822105994;0.002060764397863753;161.0;0.11167752678071355;0.047373182428260316;0.0022513105953964694;160.0;0.11473155197891283;0.04969920731524022;0.002476875353076845;156.0;0.11478791676520718;0.050085675784171176;0.002514503057551554;156.0;0.11570823735217518;0.04579717115286193;0.002104165555328375;150.0;0.10729527512417691
0.0664354079634355;0.0044262786490591;139.0;0.12822908687168305;12.0;0.06546350531779332;0.0042972235243750505;130.0;0.12618828761575718;0.06348177535920538;0.004042534679729124;150.0;0.11689513479926714;0.0669177706223645;0.00449193547014216;154.0;0.11629991806470162;0.06753539521675753;0.0045753489895933065;159.0;0.11548285290560133;0.06642733868479742;0.004426798159249353;156.0;0.11480557876433688;0.06367851520164669;0.004067711783011087;153.0;0.11217234002980676;0.06270434414539021;0.003943545301457784;138.0;0.11954093263931218;0.05621401548924792;0.003170309575768966;149.0;0.10653926463148318;0.05469564722646371;0.00300113012257573;156.0;0.10673793685716222;0.05257441367492571;0.0027731513766281256;150.0;0.10531581007805678;0.050718686209609516;0.0025808391879053355;139.0;0.10347915180826357;0.0494384078391169;0.0024521892437015603;140.0;0.10323558326092662;0.05063217469666596;0.0025719950039494745;148.0;0.10440060414394253;0.05081269356524913;0.002590396835269701;150.0;0.1051435834920905;2.158754216743891;4.670769325206761;165.0;0.4790319117413849;0.06977897545127082;0.00488495296655407;146.0;0.12708067986312538;0.07075442321181331;0.005022491335844151;144.0;0.12492870658147086;0.06819052823293896;0.004664980209345824;147.0;0.12295658977077975;0.0636859680335135;0.004068866290670993;152.0;0.11983715680120519;0.0575127129003538;0.003318430345232775;147.0;0.11579286618419829;0.05239968265011478;0.00275470541032966;143.0;0.11345350170381599;0.048942068429317344;0.0024029355782390245;150.0;0.1098661724398735;0.07248104260167237;0.00527013820732989;144.0;0.1269039484508503;0.04476441702677972;0.00201035322288044;149.0;0.11053236641559613;0.044352282311257256;0.0019730624267075133;151.0;0.11149048908193884;0.04385363691350409;0.0019291398222263973;150.0;0.11210134192886494;0.04488301653850083;0.002020738095577673;150.0;0.11341311249940252;0.048053453974524755;0.002316370394115683;147.0;0.11755947637303514;0.05099141723188368;0.00260823464116376;147.0;0.11750572420666341;0.051763330092772904;0.002686906326738452;144.0;0.1174404688588782;0.044285325232007414;0.0019675656830295133;151.0;0.10902172570715642
0.044064482834809036;0.0019413387643363743;139.0;0.10799716330522756;12.0;0.046881649978868435;0.0021983676395840057;138.0;0.11048223935641324;0.041479583133267016;0.0017182730132872899;151.0;0.10135280448932756;0.042064734868189374;0.0017642717829751621;154.0;0.09841532701380482;0.0433106197598137;0.001870446887808858;154.0;0.09782220829294941;0.0422051567086607;0.001776363324898072;153.0;0.09656674527279974;0.040155801020383755;0.0016068661179230064;150.0;0.09477939160087931;0.038841353814606606;0.0015086782247792708;134.0;0.10022189596764777;0.034724753132369945;0.0012047154005102579;147.0;0.08906382793895719;0.0337122758893307;0.0011360632712925321;154.0;0.08824258085898498;0.03338907425967707;0.0011146335824144726;145.0;0.08830865105156596;0.03287770013502339;0.001080876549862845;143.0;0.0868016496192811;0.03271099100764219;0.0010704039372604562;141.0;0.08722184637807504;0.033492356945246854;0.0011208138149498299;145.0;0.08925189431174772;0.033108753547181624;0.0010953246839323888;146.0;0.08922974695954444;1.3964670857336576;1.950761226286267;149.0;0.2937890969597632;0.05375556602856933;0.0028898668683341113;142.0;0.11654691159580265;0.052859177257388354;0.002799252854201282;140.0;0.11298853182915349;0.0502348383120594;0.0025283034764587804;145.0;0.10992609765954785;0.045696265988337;0.0020928551100596487;148.0;0.10592844196807977;0.04140411646594893;0.0017176278793536045;144.0;0.1029920574184085;0.036936722070300465;0.0013678251901462848;136.0;0.10105063762511586;0.033668112835121826;0.0011363149248154554;149.0;0.09814567997436455;0.05252410534529154;0.00275860881667974;139.0;0.1158177957788494;0.03194434009436394;0.0010230996670052618;147.0;0.09824201524399671;0.03172843494007485;0.0010093447992855571;144.0;0.0985165324772946;0.03181140773440501;0.0010144371692159535;139.0;0.09815411651747849;0.03466798040187144;0.0012048351094422953;136.0;0.09995520692099098;0.038127514257184233;0.0014571941974923482;136.0;0.10282038122528579;0.03919508699843177;0.001539944943760506;138.0;0.10350191347646949;0.03977540607831851;0.0015850598431949487;140.0;0.10576252862334853;0.031736602939687546;0.0010099580012869907;143.0;0.09749005007407247
0.047070897453626435;0.002221996685271742;139.0;0.10801235541631601;12.0;0.05005019055036938;0.00251310615636899;138.0;0.11193770544949279;0.04975023626408206;0.002481379144497629;135.0;0.10303339279380379;0.05132699282581215;0.0026408277138110425;141.0;0.09933945642168916;0.05202098963899261;0.0027119936589482256;140.0;0.09834696357327649;0.050316402091882824;0.002536602689703753;143.0;0.09640388915740933;0.047764416655558285;0.0022861904098621533;143.0;0.09463447660058574;0.04493792374714238;0.002024183321084008;132.0;0.1022710952744609;0.0402524928130017;0.0016239351916999985;140.0;0.08611390845529733;0.03802101375846782;0.001449199958787717;142.0;0.0834485128705672;0.0369928961281881;0.0013717222758562286;139.0;0.08367483168944015;0.035914725012495534;0.0012928759184681832;145.0;0.08272266346227806;0.03448335263084525;0.001192348563655655;142.0;0.08304062247911255;0.033962564293027096;0.0011570932339717915;141.0;0.08556786977407499;0.03335782850888367;0.0011160451587165015;141.0;0.0849267685013504;0.5755865350923997;0.32852319352566506;146.0;0.17908358020891843;0.04536121832048966;0.0020631972667567965;144.0;0.10963311844613872;0.04536999759808839;0.0020638374829913993;138.0;0.10539068768584287;0.04490759616282482;0.0020220228256651487;145.0;0.10267292188589679;0.04193645087197679;0.0017631243085042942;143.0;0.10002557940912872;0.039240705893757784;0.0015439130372134073;141.0;0.09757431950381075;0.03676088729362448;0.0013554363248495754;139.0;0.09608788287314336;0.03413404683643707;0.0011688900328133364;143.0;0.09411177215240647;0.04393844838438327;0.0019361747485866138;148.0;0.1071659351299189;0.03214909838501961;0.0010369176610488767;136.0;0.09012531746753157;0.03183667789742944;0.0010167749715739814;137.0;0.0905388006165443;0.03239529532473726;0.0010527098267561525;137.0;0.09067873825293504;0.03458263803740244;0.0011995076260876668;135.0;0.09321925909684517;0.03638715281512947;0.0013270842311073367;135.0;0.09695556565996102;0.03588975841646341;0.0012910594639162802;131.0;0.09681073989129138;0.036058822455509495;0.0013041449291777269;141.0;0.09776210703241157;0.03135535772271766;0.0009863236601406365;135.0;0.08940367074950686
0.0451349417094775;0.0020426163882191453;146.0;0.10524066938019151;12.0;0.04809414179879824;0.002318118487893418;142.0;0.1106156937831507;0.04669487415352533;0.002186466904544951;146.0;0.10117244893776794;0.0480824913317673;0.002318208306220094;149.0;0.098689788447082;0.04843608036825564;0.002352743999768175;147.0;0.09765909585682966;0.04667687742823147;0.002184912417964759;152.0;0.09596676226355755;0.04448073471909604;0.0019841542003340004;152.0;0.09456615352964882;0.043100357732054645;0.00186319147309135;141.0;0.1004182931554146;0.03795882767361911;0.001445163111157954;149.0;0.08521894260403903;0.03551531492159157;0.0012652068059583685;148.0;0.08330320009576966;0.033964501259829756;0.0011568781230854052;152.0;0.08247351436864511;0.03276908973935934;0.0010771162565087417;150.0;0.08219795768248232;0.03113352093321474;0.0009723224350079957;153.0;0.0827844695765845;0.03012316918985749;0.0009102397797222108;148.0;0.08489362098852055;0.03025414269924104;0.0009181605941234909;157.0;0.08504547257711295;0.2096489984169901;0.04372268748016928;159.0;0.13931581746815197;0.03942057349723564;0.001558965444693206;133.0;0.104276583207163;0.04068662008736559;0.0016605923636203426;132.0;0.10153117787343219;0.040001167318815596;0.0016048665246543182;134.0;0.09829585906950543;0.03824343898002698;0.0014667624257643178;138.0;0.09690157538103011;0.036081756043787994;0.0013055380981894069;136.0;0.09468335979111511;0.034294075442003545;0.0011793209232454978;136.0;0.09351087017608772;0.03206824812334947;0.0010311830367964476;140.0;0.09224935094591756;0.04091162794999603;0.0016789945385545521;140.0;0.10598112018809934;0.030671266484171754;0.0009437066252030771;141.0;0.0893411877383982;0.029774147189271547;0.0008893360008379495;140.0;0.08865581601821751;0.030088163968146103;0.0009082321237578621;144.0;0.09070000127649551;0.03138977738418591;0.000988534071656225;145.0;0.093216015405224;0.0340644882860706;0.0011641710740601559;144.0;0.09864537265222321;0.033403540753790685;0.0011192010221017384;140.0;0.09689463400892152;0.033678007177080874;0.001137776971728193;142.0;0.09408694904501994;0.029357973643026457;0.0008644778043603108;142.0;0.087452244905749
0.03153728748933509;0.000997687521014225;153.0;0.09863319834313958;12.0;0.03584061156843273;0.0012883899482617049;146.0;0.09987173701108482;0.035296231997684765;0.001248619394813859;153.0;0.09108531293633161;0.03620451727822324;0.001313127398097411;151.0;0.08936475735533622;0.03620697238198462;0.0013119202486322368;155.0;0.08830598887521557;0.03443864607345536;0.0011880248005291722;156.0;0.08642055742424921;0.033002680367749684;0.001090881891739173;154.0;0.08602441457577222;0.02886612854509889;0.0008350379711860255;149.0;0.09215175709102806;0.029616961498837857;0.0008790274573228293;154.0;0.07922478356873532;0.02815794617235814;0.0007945997346563457;150.0;0.07833306163140377;0.026350479813607466;0.0006957420587633872;157.0;0.07651818403550581;0.024536237824945396;0.0006034398096485146;152.0;0.07665229530295316;0.023596142883542507;0.0005582664514090802;154.0;0.07617016882210442;0.023047471464279268;0.0005327942718368469;148.0;0.07801052197639964;0.023893008979946645;0.0005725707466547218;153.0;0.07894868091076315;0.10235926297547727;0.010507517037583344;156.0;0.12170672930138471;0.040817183514348855;0.0016711961079387604;134.0;0.10639694937002499;0.040267183847905945;0.001626221170732207;138.0;0.10411162986364933;0.039109832773823856;0.001534199099740061;139.0;0.10223789417183753;0.0367146432674047;0.0013518308692986175;144.0;0.09948113478312959;0.03392567927447108;0.0011544282654684323;146.0;0.09691034694507376;0.03164864509421499;0.0010048515376001957;148.0;0.09602546884559207;0.029722040275872403;0.0008862451849712766;157.0;0.09488967825266136;0.04328479567650236;0.001879672062452326;135.0;0.1104785990750007;0.028406967375694408;0.0008094695845058766;158.0;0.09018135872843006;0.027792144245833608;0.0007745973433662186;156.0;0.08847061444018595;0.028130514740299754;0.0007935410242934086;157.0;0.09030758081050957;0.030759882407070567;0.0009485555836444031;153.0;0.0944771019369739;0.0344633619935201;0.001190359184673174;153.0;0.10025652353606827;0.03308443935165506;0.0010972505885965783;152.0;0.09741249907405422;0.03161901408378572;0.001002824640819419;150.0;0.09416876239328072;0.02757308602375364;0.0007627348286326777;160.0;0.08712738384638184
0.03677822510521881;0.0013547444294710858;159.0;0.10348937402082267;12.0;0.03894680165365941;0.0015181612242544178;159.0;0.10023282809436627;0.03755226638801288;0.0014120446997076116;159.0;0.0918820414813437;0.038653285955213286;0.0014970007632526153;149.0;0.09051557775931329;0.03720760483352533;0.0013873393156105653;146.0;0.08907557582954606;0.0362716883611854;0.0013184086970018086;148.0;0.08759808859234298;0.03435033409705234;0.001182190056292013;145.0;0.08685377604482888;0.031449402148829436;0.0009909727311917156;157.0;0.09479975688741143;0.0294282388348168;0.0008681274144667339;144.0;0.08074939939245823;0.028085750300489567;0.0007909087952076176;141.0;0.07922851102120558;0.026709935521112938;0.0007148105697324732;145.0;0.07850741553696641;0.025611936682009707;0.0006573877632965802;145.0;0.07820036486176557;0.025351042025811916;0.0006441635192437228;150.0;0.07751719727182224;0.02612890048108052;0.0006841361326545067;156.0;0.08034994260810642;0.02626236512882512;0.0006911442377310499;149.0;0.08067482920678248;0.06831047981684005;0.0046766473565406485;150.0;0.10487834853495033;0.0361052315238467;0.0013073542778567354;140.0;0.09995101067248896;0.03564766918971081;0.0012743633446123416;143.0;0.09707981220032866;0.035254190819461795;0.001246339627294528;141.0;0.09690913480941353;0.03391791371614789;0.0011537105450901758;139.0;0.09365915330265981;0.03214004634920825;0.0010354463155944527;143.0;0.0920807733730094;0.031342150151018815;0.0009851931091210114;145.0;0.09194476121270276;0.03012351039115956;0.0009100894025298485;145.0;0.09005138509104733;0.038323940916199985;0.001473487889307779;149.0;0.10402799568241007;0.029858812749656953;0.0008944743562461802;144.0;0.08773006206157777;0.029634765954780786;0.0008811043969109446;148.0;0.08749527407160626;0.03024177647128136;0.0009175755882326253;146.0;0.08870821276477409;0.03312208630236895;0.0011005838432610177;142.0;0.0926327381305896;0.034180830689753264;0.0011720935584315943;139.0;0.09523254470588306;0.031920718835780945;0.00102227609661793;141.0;0.09193913368282128;0.030403898818017708;0.0009273341138411692;131.0;0.09072344908241445;0.029150310863608687;0.0008524372691672401;143.0;0.08494025566859137
0.03689497684462906;0.0013655744707686804;163.0;0.09818479163799326;12.0;0.03956544144946823;0.0015705383270709574;178.0;0.09818400460663292;0.03856581402556684;0.0014921842070488855;176.0;0.09243764595042166;0.041475420017005174;0.0017258329755770426;171.0;0.09312521398118793;0.04118032863085756;0.0017012692689818228;167.0;0.09205812694821977;0.041232238936442955;0.0017056466054080983;173.0;0.0915579574121813;0.03917242581168328;0.0015394831623104007;174.0;0.08974222894764801;0.03186235056965255;0.001018524243022642;168.0;0.0907812214757068;0.03343702971474257;0.0011216860338715846;174.0;0.08490194874762906;0.031953048910298494;0.0010243317696632594;167.0;0.08422574728346141;0.03117392970878803;0.0009749454041271072;172.0;0.08406903035039466;0.030712962233449503;0.0009463335924883813;169.0;0.08347570721123374;0.03061358446094697;0.0009401872323440036;172.0;0.0842264621015654;0.03126263832090044;0.0009803062897821284;171.0;0.08639025136528179;0.031323694050914515;0.0009842728744908502;161.0;0.08570499331258466;0.04255672902362619;0.0018170034785381206;159.0;0.10711428944202549;0.032188608813223586;0.0010388233620471604;151.0;0.09348822966229085;0.03052791905934162;0.0009341167197517543;155.0;0.09028461067215633;0.030036824323096886;0.0009046167433566359;149.0;0.08941247029168663;0.029079799950192012;0.0008479362538998923;148.0;0.0873261140746332;0.027942156374412087;0.0007830585459359069;149.0;0.08656087496459527;0.02756630623445442;0.0007620776644758022;148.0;0.08536774998575866;0.026584340628112102;0.0007087245133495976;140.0;0.08461150125927944;0.03305223976545526;0.00109530463625058;150.0;0.09556154271631143;0.0269280501927952;0.000726883701234687;149.0;0.08368686754702703;0.0263775811453083;0.0006972845939668564;152.0;0.08303247630394217;0.027031838615129283;0.0007321149622348356;147.0;0.08523128055067378;0.029259293143885867;0.0008576066021007549;147.0;0.08800959726483201;0.029832444642738598;0.0008911376234380727;139.0;0.09020536772491167;0.027671796426827783;0.0007671887657454129;140.0;0.0881244516179733;0.027102775501868726;0.0007362250140067789;134.0;0.08676379522107584;0.02601604524794372;0.0006786528146081858;138.0;0.08102523135958438
0.058124789731133886;0.003383570788805176;164.0;0.11788836292939463;12.0;0.061327095750053025;0.003767881895147632;179.0;0.11734242474448933;0.06188018998687534;0.003837426256426036;170.0;0.11045743212796093;0.06300019420875112;0.003980175390366847;169.0;0.10756006501718908;0.06183975259351952;0.0038358433281691006;174.0;0.1047283842635954;0.060013443907997385;0.0036128478137485254;176.0;0.10359297987892731;0.056664953092346614;0.003220629636578306;178.0;0.10092644207886334;0.053930754289289576;0.002914600376529768;171.0;0.10909921431290967;0.048856825723207126;0.002394443901290443;168.0;0.09901058524003728;0.04661728579546865;0.002179984030352772;167.0;0.09931543235548237;0.044766168234282026;0.002010033394185692;170.0;0.09830189391884153;0.043258022033995855;0.0018769796155828579;168.0;0.09703107892350304;0.04137277063772782;0.001716985187936215;168.0;0.09718124514951881;0.041896061161563074;0.0017604973848590012;158.0;0.09732753954444125;0.04253590014869471;0.0018148733663780271;151.0;0.09778755789613722;0.0871605478970425;0.007621130508347067;166.0;0.12241844194548822;0.022895739851724623;0.0005257051828288843;156.0;0.07563801669518716;0.019823896542683402;0.0003941959230048641;156.0;0.07468613216474684;0.019087892511037347;0.0003654733912066771;158.0;0.07278465332486006;0.01774372528604326;0.00031583437846293365;158.0;0.07188172936708115;0.016167176943413412;0.0002621994161941206;156.0;0.07200317539789963;0.015624601315849949;0.00024487989861396735;160.0;0.07066085487561066;0.014964529251932795;0.00022466969240217473;154.0;0.07082943286801369;0.022697024895718728;0.0005168305858696362;157.0;0.07527276035978733;0.014815076718358489;0.00022007028369634468;167.0;0.06744070680625604;0.014589918272060527;0.00021349912148286773;167.0;0.06908232518624882;0.015361559180259481;0.00023664558306583193;167.0;0.07004228505193916;0.016260967940515604;0.00026507000358270147;164.0;0.07282867455241145;0.01744728086309548;0.0003051272659035019;165.0;0.07414582171848262;0.017811541595943114;0.0003181360222796522;155.0;0.07439629862079128;0.018376992173572866;0.0003386769758895369;157.0;0.07303049102654689;0.013897205715548611;0.00019376267317993334;148.0;0.06453252043090617
0.05784593703064721;0.0033570255173006303;151.0;0.12238332338427454;12.0;0.05997498656610745;0.003608729568089752;160.0;0.11936996192197843;0.06144683848897405;0.003787893310270793;147.0;0.11401156512111751;0.062483290167014365;0.003916716628269944;139.0;0.1116303006594302;0.06071975470323022;0.00369857559549866;141.0;0.10903032749142991;0.05876425417135978;0.0034644384840945286;139.0;0.10752634114661953;0.05551504370707994;0.0030914724719734903;141.0;0.10535490787926588;0.054126934291532765;0.0029389652804939887;165.0;0.1155352736809759;0.04725311239776079;0.002239573258741699;137.0;0.1021228574688959;0.0451463930253303;0.002044411600789711;140.0;0.10091360894624493;0.043565047059164363;0.0019035170037792727;138.0;0.10063886597944166;0.042257946001223755;0.0017912257320430707;141.0;0.0990544117340344;0.04094484456464587;0.001681625896382941;143.0;0.09927993362635489;0.041697546726641395;0.0017436666829273267;140.0;0.09952870701436826;0.0415232070844375;0.0017287390819642483;146.0;0.09988329521562006;2.2265616905464722;4.95629855330917;178.0;0.45709035708393403;0.05444570761991345;0.0029737819099540583;147.0;0.10471441813446387;0.05287838233005498;0.0028052396756328936;147.0;0.10047143137573669;0.05086940852196914;0.0025955582911674656;147.0;0.0978459281530473;0.04817718036031475;0.0023278118750132797;142.0;0.09579333366982436;0.04459892790706477;0.0019950015585348804;141.0;0.09499191917885133;0.04203213880946096;0.001771400145661973;142.0;0.09256583606428705;0.03967731920648984;0.00157861485422105;142.0;0.09208789525223515;0.05245963985558847;0.002760925409395454;158.0;0.10260123196417766;0.0352484437845247;0.0012456039068188852;147.0;0.08675718063825058;0.036030524710536395;0.0013012249525075337;145.0;0.09101717064879834;0.03629517732050591;0.001320671765970916;150.0;0.089713185395234;0.03771330390091456;0.0014263045866296355;143.0;0.09133029754735869;0.04067866475307628;0.001659848199794022;150.0;0.09301170198729745;0.04267708290699328;0.0018264550917067859;151.0;0.09213957974698701;0.0432939036019434;0.0018794996477722353;152.0;0.09327944851868675;0.036286593441655045;0.0013199494646346606;140.0;0.08639505791649264
0.043401224699190735;0.001889573628582185;158.0;0.11255371582922276;12.0;0.048263236499141084;0.0023369401060447034;160.0;0.11070560095606269;0.04520849072153805;0.0020504866512024273;152.0;0.10370045273131315;0.04604616426556095;0.002127156646030557;138.0;0.10308525483262052;0.045927053917114845;0.0021161427601783466;135.0;0.10283716526643932;0.04521704634819921;0.0020512648126596047;134.0;0.10114455377105641;0.04338791047906493;0.0018886236485126085;135.0;0.10072212002538504;0.037877796650458595;0.001439366654612002;165.0;0.10454683745548976;0.03780951104092483;0.0014341810116158488;135.0;0.09658022956812407;0.03670812204942193;0.0013518272767375778;132.0;0.09472261463630355;0.035706085208829084;0.0012790595936902679;132.0;0.09444649223542433;0.03563721556102417;0.0012741616667501293;133.0;0.09421302494713346;0.03498199226470319;0.0012277329971225946;138.0;0.0944043616140311;0.034559961410846274;0.001198229382682599;135.0;0.09484394841640123;0.03238720805747756;0.0010523189043944387;138.0;0.09346894015310858;2.4315574036292906;5.930372407215545;164.0;0.4899087086844616;0.08675303537425237;0.0075506759860658156;158.0;0.13768410558007346;0.0886133701723454;0.007877788085535575;158.0;0.13407850248958306;0.08806836012958924;0.007780785506695308;154.0;0.1325244968423085;0.08407770671193995;0.007091565310447499;150.0;0.12951849056968864;0.07724577663409705;0.005984811567657135;152.0;0.12638233828782586;0.07158636451643902;0.005140647491983243;147.0;0.12250522425129133;0.06714661889623436;0.004522511613654653;148.0;0.12041941280026967;0.08387930235212276;0.007058735611765344;165.0;0.13579235702666442;0.05992918131485445;0.00360300502935384;147.0;0.11294720994979515;0.06018311448624872;0.003633709197592394;145.0;0.11502707935394893;0.06030980607155025;0.0036490852426237304;149.0;0.11396623163896558;0.06233604717993677;0.0038984400217573953;145.0;0.11428792305816934;0.06547004697781594;0.004300330296465219;148.0;0.1156462195920093;0.07004079458323677;0.004921474803317484;158.0;0.11676595912500176;0.07406811421081465;0.005503008675652109;159.0;0.12039573585065146;0.060627127582936875;0.0036871695253225126;154.0;0.1128957016055256
0.04533434165234253;0.0020619899615555966;168.0;0.11530928126417374;12.0;0.05195349507731639;0.0027079223427129155;168.0;0.11693490432921937;0.04841965568958897;0.002351997360863609;162.0;0.10856347589299302;0.04826572639648925;0.002336713976623512;152.0;0.10681133487773355;0.048295290603363086;0.0023391993661480196;150.0;0.10611640329120929;0.04740384405150894;0.002253586119223571;148.0;0.1048061919276395;0.04500756575160907;0.0020315703190566686;147.0;0.10352929311828002;0.04022369500275333;0.0016231070755090041;167.0;0.10625194198583458;0.039459499734396365;0.0015619154972048624;152.0;0.09940832114163901;0.03862179546002502;0.0014963712315217484;151.0;0.09811450667806686;0.036917536204365727;0.0013672376562657582;149.0;0.0961718173147307;0.0369388103589069;0.0013687743928141487;150.0;0.09670868893977069;0.03600160802565123;0.0013003316003449203;154.0;0.09543068633427915;0.03538924930000685;0.0012564519958454968;150.0;0.09683401706849643;0.03387241012080578;0.0011507614144749836;145.0;0.09535002006320682;1.0451893195818724;1.0818370909294897;137.0;0.23548479607152945;0.07920085761997371;0.006289806510597166;148.0;0.12936185901496092;0.08363445172531667;0.0070153489176567226;147.0;0.12916753749790125;0.0845551155529994;0.007171857776157247;145.0;0.12830336689288788;0.08047872649341531;0.00649729960450715;142.0;0.12548396889285277;0.0738747640521788;0.005475303159842318;145.0;0.12148981936916424;0.06787582595239691;0.004622198034311697;147.0;0.11799046093721857;0.06370796417222009;0.004071714110857687;149.0;0.11555097121304866;0.07777335670062441;0.006065260555916993;149.0;0.13058327421497104;0.05736584070737596;0.0033009339103538876;147.0;0.10920870279128464;0.0571741737471301;0.003278456361625322;148.0;0.10981365151296965;0.05729809954723588;0.0032925615946033274;154.0;0.10984020579484081;0.058032812294334025;0.0033780029680123428;160.0;0.10852512445000119;0.0600572234270103;0.003617990792340261;162.0;0.10829060569755926;0.06496603742489314;0.0042339911309981874;158.0;0.11142323860200655;0.07036806302315875;0.004967706596258893;155.0;0.11665762970777496;0.057370517025999546;0.0033014234179659526;152.0;0.10906349138186698
0.04721049893155766;0.0022345533114189087;152.0;0.11602971631118401;12.0;0.04952588595222551;0.002458756640029803;172.0;0.115240285394327;0.048883179988843325;0.0023931359577646035;163.0;0.10987548563454032;0.052115350474002106;0.002718108630283024;156.0;0.10915531442829264;0.05271768665831628;0.002780086207216468;159.0;0.10808611506890949;0.05157612734984471;0.0026618141718343044;161.0;0.10697501958729608;0.04845284412555494;0.00234937570296795;164.0;0.10381762130983503;0.04191229558479183;0.0017600773639337903;159.0;0.10830540084114391;0.04079776924554257;0.001665541792122251;168.0;0.09834908043368729;0.03928475665359289;0.0015442870241124808;172.0;0.09711647180825307;0.037749258319558505;0.0014256266708068716;174.0;0.09472965675083954;0.03622749714627408;0.001313167125672449;173.0;0.09470237504856911;0.037067765541276824;0.0013744849658772146;170.0;0.09375606464924785;0.03657591269931656;0.0013389532643049813;163.0;0.09497850919777903;0.036321413451011746;0.001319876815852617;160.0;0.09503418577413827;0.3886735120608099;0.15056355397795826;152.0;0.16463443126420693;0.054764411560655334;0.003007900329946418;144.0;0.11780868075965432;0.05750575807424611;0.0033169531409324065;153.0;0.11605728550574267;0.057431735755215964;0.003308825876390897;152.0;0.11469750805979281;0.05411187738639817;0.002937629816048249;146.0;0.11239727867898784;0.04992209806653503;0.0025001729659005667;145.0;0.10863681031117275;0.04651281200838191;0.002170371298192435;150.0;0.10709605674031382;0.04425242049336943;0.001964564125808336;150.0;0.10532133950512267;0.05739733236905092;0.0033047725726448166;144.0;0.12070031941093652;0.04045624135055592;0.0016419278598988746;151.0;0.10119498547662621;0.039799868123245735;0.0015890732424291678;145.0;0.10134324848609523;0.039599011415599926;0.0015730378872578544;155.0;0.10087025924783183;0.03862631079596058;0.0014966323843517643;156.0;0.10084070097867977;0.040238495377682745;0.0016237942530577967;156.0;0.10313647668317502;0.04294904062530045;0.0018506113366038956;154.0;0.10458800075370901;0.045036717799168;0.0020347652089902114;146.0;0.10658108478844519;0.03983713281051266;0.001592114730534557;147.0;0.10056333831802744
